Latitude,Longitude,Altitude (m)
-10.877331381881252,15.566110975180601,11562.84807206154
-10.866232807707298,15.564088055492642,11562.812362031938
-10.855131107761421,15.56203333874959,11562.775278539659
-10.844029407815544,15.55994413787637,11562.738881778718
-10.83293083364159,15.557818661489597,11562.70179828644
-10.821836427163532,15.55565422251419,11562.666088256838
-10.810742020685476,15.553447462106304,11562.629004764558
-10.79965282382729,15.551197036728398,11562.592608003617
-10.788565710817053,15.548898915767857,11562.55552451134
-10.777485891274637,15.546549740380833,11562.51844101906
-10.766409197504142,15.544149062721477,11562.48135752678
-10.75533771335352,15.541692404331327,11562.444274034502
-10.744271438822768,15.539178645595769,11562.407190542222
-10.733212457759835,15.536604651593876,11562.370107049943
-10.722159728240749,15.53396773525057,11562.331650094988
-10.711119501809355,15.53126408987616,11562.295253334047
-10.70008448499783,15.528493043701873,11562.258856573106
-10.689057803578102,15.525649894346325,11562.221773080826
-10.678044667170038,15.522733298271975,11562.183316125871
-10.667035698457871,15.519741240172516,11562.14691936493
-10.656045484377241,15.516669465512406,11562.110522603989
-10.645061521840457,15.51351551113949,11562.07412584305
-10.634091104315338,15.510278705285002,11562.036355619432
-10.623131106029962,15.50695367379878,11561.99995885849
-10.612186736604201,15.503539297066213,11561.963562097551
-10.60125695411408,15.500032888012221,11561.925791873933
-10.590331339319855,15.496449897318504,11562.190183439256
-10.57941822761332,15.4927762178409,11562.66471479416
-10.568523870538325,15.48900266873956,11563.24637623787
-10.55765451963871,15.485130145706178,11563.87404868126
-10.546806007218581,15.481163127199215,11564.51133536339
-10.53599812983345,15.47710564383129,11565.142441463471
-10.525216300547674,15.472964189367175,11565.759812936783
-10.51447823206882,15.468739883421486,11566.359329395294
-10.503787050168805,15.46443474130053,11566.938243913652
-10.493153174087377,15.46005167400231,11567.498616685869
-10.482815204414642,15.455027963220886,11558.479087285996
-10.47258767868318,15.449827577253078,11542.677399187089
-10.462322643688644,15.44476400819133,11523.238781919481
-10.451980506320012,15.439908687448133,11502.08745669365
-10.441586272752668,15.435209440982389,11480.205449323656
-10.431192039185321,15.430582521620831,11458.044629030228
-10.420836356805024,15.425960528563584,11435.799340782167
-10.410553609102925,15.421297333688472,11413.540317907335
-10.400349005698898,15.416566066244714,11391.292969465258
-10.390244426996398,15.411754858317384,11369.062102575303
-10.38022736990774,15.40685744006463,11346.850464162828
-10.37031242136856,15.40187202010307,11324.653247108461
-10.360488120215141,15.396798150586855,11302.47182487488
-10.350757592219407,15.391636727207679,11280.303450536729
-10.341125005077256,15.386389541348928,11258.14812409401
-10.33158202339689,15.381055473395984,11236.006532278063
-10.32212760525434,15.37563676257808,11213.877301626206
-10.312762792573576,15.370134528509833,11191.760432138444
-10.303487585354599,15.36454944296001,11169.655923814775
-10.294300941673434,15.358879490622305,11147.56308992386
-10.28520181960611,15.35312914995518,11125.48124373436
-10.276185009532753,15.34729730134402,11103.413132171632
-10.267255721073235,15.341385512249285,11081.354634847643
-10.258413954227557,15.335393110902208,11059.309185419084
-10.249655541299818,15.32932233653202,11037.274723691942
-10.240974230746177,15.323171845601182,11015.251249666215
-10.23238148373035,15.316944325184771,10993.237389879228
-10.223867922936567,15.310640223128635,10971.235891256334
-10.215433548364828,15.304257748049388,10949.24332014084
-10.207080443863083,15.297802050174262,10927.263796920777
-10.198805483659408,15.291269546736489,10905.293201208116
-10.190609709677778,15.28466337265699,10883.332906465532
-10.182488954222295,15.277983304012842,10861.383599424364
-10.174446343064883,15.271230460418664,10839.443906621935
-10.166478750433619,15.264405065797378,10817.513828058243
-10.158587218252476,15.257507791917751,10795.593363733293
-10.150768620749535,15.250539982317326,10773.681826915743
-10.143025041772738,15.243501189150255,10751.77990433693
-10.135352313626193,15.236393427722843,10729.887595996857
-10.1277504363099,15.229217369803866,10708.004215164186
-10.120221493671803,15.221971895778703,10686.129075107576
-10.112761318016009,15.21465924487659,10664.263549289704
-10.105371993190467,15.207280536712137,10642.406950979233
-10.09804518380338,15.199832636364425,10620.557219982149
-10.090792351018468,15.192322037598224,10598.715729761125
-10.08360203367201,15.184746277261379,10576.883167047501
-10.076477357535934,15.177105579276814,10555.057471647264
-10.069418322610234,15.169402182873759,10533.242077217103
-10.062428054666839,15.161636088052216,10511.43217663765
-10.055493008694079,15.153806846966337,10489.631890296938
-10.048622562007724,15.145916922768278,10467.836411075594
-10.0418156726838,15.13796721114973,10446.045738973618
-10.035067131102434,15.129955696804387,10424.259187259675
-10.0283821468835,15.12188596249902,10402.478129396439
-10.021751342711227,15.11375688861901,10380.701191921235
-10.01517992820549,15.10557060243213,10358.928374834062
-10.00866477759436,15.09732665609253,10337.161738328934
-10.002206932801817,15.089027176867985,10315.397848749162
-9.995803268055937,15.080671045143877,10293.63807955742
-9.98945378335672,15.07225938053482,10271.883804216386
-9.983156394856213,15.063793414616894,10250.130902338029
-9.97691527025032,15.055273595235946,10228.38349431038
-9.97072415799519,15.046700930045127,10206.640206670761
-9.964582016166853,15.038075083160054,10184.901039419176
-9.958491970537228,15.029397734002652,10163.164619092942
-9.952448811486445,15.020670338071918,10141.430945692064
-9.946455664786427,15.011891439868855,10119.702079410554
-9.940508362741278,15.003063726468541,10097.975960054398
-9.934604821503049,14.994186526102204,10076.251900892259
-9.928750250691609,14.98526140623031,10054.532648849488
-9.922937356839142,14.976288478814316,10032.815457000734
-9.917167181869619,14.967269087391763,10011.101012077334
-9.911440767707015,14.95820233627096,9989.389314079286
-9.90575811435133,14.949090912526984,9967.681049737932
-9.900115054106669,14.939934480275449,9945.974845590592
-9.894508461201108,14.93073326343928,9924.270014905931
-9.888943545254516,14.92149050890086,9902.567931146623
-9.883415096647024,14.912202969777807,9880.867220849992
-9.87792207345466,14.902873780991042,9859.169944210054
-9.872464475677418,14.893504286078107,9837.474041032792
-9.867045429087225,14.884093141501461,9815.779511318207
-9.86165555636831,14.874642026683027,9794.087041797638
-9.856301109064523,14.865151613391578,9772.395259008408
-9.850980003327912,14.855623245164649,9750.704162950517
-9.845689113386554,14.846056362194936,9729.01581381798
-9.840425313468527,14.836452196058513,9707.32746468544
-9.835193813193705,14.826811082639766,9685.639802284242
-9.829988361018238,14.817135932936697,9663.95351334572
-9.824814166561998,14.807423947912767,9642.267911138535
-9.819660810585246,14.797677478758667,9620.582308931353
-9.814536628479772,14.78789809293486,9598.896706724168
-9.809434326777758,14.778085454556962,9577.211104516984
-9.804355989327151,14.768240347355203,9555.5255023098
-9.799296406508082,14.758364002905662,9533.839900102617
-9.794261829864396,14.748456197285414,9512.154297895433
-9.789248091700196,14.738517490301767,9490.468695688249
-9.784253108167531,14.728550009222495,9468.780346555712
-9.779278963114354,14.718553418163209,9447.09337088585
-9.77431836307284,14.70852928458437,9425.402961559297
-9.769373391890941,14.698476488871368,9403.71392569542
-9.764446133416605,14.688397494176353,9382.020769443512
-9.759535545725857,14.678292860306636,9360.327613191606
-9.754633293426904,14.668162587262215,9338.632396745683
-9.749746669987564,14.658007906619167,9316.935806837082
-9.744869423863994,14.647828146608724,9295.236470003128
-9.740005722752088,14.637626106267424,9273.53438624382
-9.735148273184029,14.627401225787962,9251.830242290498
-9.730299159007762,14.617154400862027,9230.123351411821
-9.725459422147265,14.60688607933547,9208.41371360779
-9.720626978754588,14.596597492784364,9186.702015609742
-9.715798703057807,14.586289536900402,9164.985510492326
-9.710978762752822,14.575962323645049,9143.266258449556
-9.706158822447835,14.565617084594379,9121.542886018755
-9.701342007914771,14.555253819748396,9099.81607993126
-9.696525193381708,14.544874544413403,9078.083779993058
-9.691711504620569,14.534478586820635,9056.348733129502
-9.686894690087506,14.524066170893013,9034.608192415239
-9.68208204325034,14.51364020762854,9012.862844581605
-9.677257935249456,14.503200697027214,8991.112002897264
-9.672440078792418,14.492746407512959,8969.35772755623
-9.66760971924769,14.48227980223793,8947.597958364488
-9.662780401626934,14.47180267258551,8925.831321859361
-9.657942748614387,14.46131277932647,8904.059191503526
-9.653097802134017,14.450813145420272,8882.280193834305
-9.648242436413906,14.440304330674223,8860.496389045717
-9.643387070693795,14.429786559011248,8838.704343481066
-9.638512950342147,14.419259606508422,8816.906117334367
-9.63362945267473,14.40872649612521,8795.101023874284
-9.628733451919622,14.398185996285532,8773.289063100816
-9.623824948076823,14.38764023425716,8751.467488088609
-9.618903941146332,14.37708820238694,8729.640419225694
-9.613966263432253,14.36653202794264,8707.804422855379
-9.609016082630482,14.355972494654493,8685.958812246323
-9.604046105273202,14.345409938406883,8664.105647592545
-9.599057373284383,14.334844919007118,8642.244242162706
-9.594051970511977,14.324278891954197,8620.373222494127
-9.589027813108034,14.313711745286662,8598.492588586809
-9.583980733376656,14.303144598619127,8576.600966978074
-9.578915940937716,14.292579579219362,8554.701104593278
-9.573828226171342,14.282015119626905,8532.790254507066
-9.56871446330561,14.271453571032449,8510.869790182114
-9.563577778112446,14.260894261667225,8488.936277961731
-9.558418170591846,14.250339654683387,8466.994524965286
-9.553229389199968,14.239789638119476,8445.038350610734
-9.548015601632706,14.229245331590104,8423.07324874878
-9.542772640194165,14.218707070979658,8401.094412260056
-9.537500504884346,14.208176199825678,8379.103901338578
-9.532200237627219,14.197653725781315,8357.101029253006
-9.526872880346762,14.187139089039265,8335.084422540665
-9.521509055727206,14.176634640790217,8313.05545466423
-9.51611605723637,14.166140325053446,8291.012752161027
-9.510689717178357,14.15565720546283,8268.955628299715
-9.50522795170522,14.14518628967153,8246.884769811631
-9.499732844664903,14.134727857583197,8224.79948996544
-9.494204396057413,14.124282860870252,8202.700475492478
-9.488638438186847,14.113852419147316,8180.5842927360545
-9.483530926864962,14.102541232586802,8144.068727273942
-9.478545320648067,14.091098211405269,8096.42056008339
-9.47336695849593,14.080045879743945,8042.301323490144
-9.467862474139848,14.06951685595408,7984.861054143907
-9.462058957603148,14.059437973220527,7925.841989450456
-9.456009547008518,14.049683554802654,7866.114218015672
-9.44978926088211,14.040146901427569,7806.073297090531
-9.443444985802763,14.03075523814524,7745.888162584306
-9.437011105261629,14.021464844004916,7685.617873392106
-9.430515751206011,14.012254446328894,7625.285091648103
-9.423962049407836,14.003113016913213,7564.891877546312
-9.417366670650688,13.994036077299405,7504.437544355394
-9.410727531086623,13.985022619834316,7443.918658418656
-9.404059217651277,13.97607197274918,7383.3352197361
-9.397353394952857,13.967184136043992,7322.685854845048
-9.390622566079054,13.95835944560314,7261.9705637455
-9.383872982573715,13.949597509561508,7201.188659706117
-9.37710256058889,13.940897096343019,7140.342202920915
-9.370319635516374,13.932258149966941,7079.431193389893
-9.363526291204115,13.92368111827912,7018.45700457573
-9.356732946891857,13.915164321857633,6957.423756866456
-9.349939602579598,13.90670770472175,6896.331450262071
-9.343152509811183,13.898310819025625,6835.179398031236
-9.336375836282514,13.88997198534733,6773.973780755998
-9.32961791738538,13.881690196033716,6712.715971899033
-9.323318445036927,13.872784053629559,6640.923017578126
-9.317231525179224,13.863801721450793,6560.69082183838
-9.311109179906397,13.855117150779117,6475.404970178605
-9.304876390692298,13.8468097222908,6387.474516134263
-9.298558163712308,13.838803302191959,6298.2907773971565
-9.292214930556934,13.830985761078816,6208.5782555294045
-9.28590295512079,13.823266410167484,6118.68787024498
-9.279665998210792,13.815581879270708,6028.775509557725
-9.273524898306428,13.807898412007816,5938.902292556763
-9.267489032723466,13.800200781620033,5849.092254838944
-9.261560485309854,13.792484229745241,5759.348830060959
-9.255736130293668,13.784748532460519,5669.6703013944625
-9.250000338815298,13.776999119896752,5580.052205085754
-9.244359362418583,13.769241422184828,5490.488703918457
-9.238792362624045,13.761482157012441,5400.973960676193
-9.233292045963857,13.753727146375596,5311.501108045578
-9.227851118970205,13.745984507480253,5222.064308810234
-9.222461246251292,13.738260566148998,5132.657725753785
-9.217110966643402,13.730562040069524,5043.273461465836
-9.211786735134867,13.722896766544139,4953.90636546135
-9.206486467877742,13.71527135129908,4864.548196964264
-9.201197661784333,13.707693183790811,4775.192432026864
-9.195911981462846,13.700169765437257,4685.832203335763
-9.190615881901618,13.69270870961781,4596.459613480568
-9.185302069632826,13.685317069904544,4507.068138513565
-9.179962209264678,13.678002907522698,4417.649537658692
-9.174584839633456,13.670774171736042,4328.196256871223
-9.169163709195315,13.663638363962505,4238.701428837777
-9.163684231014614,13.656603881311705,4149.1568127822875
-9.158140153547508,13.649678393143759,4059.555541391373
-9.152521057554255,13.642872199913134,3969.8890305233003
-9.146695660614094,13.636388343730419,3884.3113180446626
-9.141352674474025,13.62949857126872,3802.5834214496613
-9.136893239864136,13.621842926429032,3729.9581487464907
-9.133217332082902,13.613242046949894,3664.3684386062623
-9.129341374898607,13.604655274614915,3607.5936119270327
-9.125232026744076,13.596080930002172,3556.950609369278
-9.120802807929442,13.587621121964634,3515.9960125350954
-9.115517127607955,13.57952558054237,3481.7006494903567
-9.108752957166976,13.572294045719175,3442.039167766571
-9.099789285216307,13.567190058569794,3395.728066492081
-9.088662579095047,13.564667118994384,3344.3066539621354
-9.075924016585589,13.564475776856533,3289.597858514786
-9.062241470955437,13.566050738736681,3233.039352207184
-9.048200503478137,13.568796761524302,3175.6124741220474
-9.03424080607083,13.572209850700062,3117.941119680405
-9.020647865902466,13.575908777487253,3060.399900827408
-9.00759047465688,13.579622651129567,3003.2044512033463
-8.995148860480088,13.583166063446614,2946.4732319641116
-8.983362616483113,13.586408187470528,2890.2637568593027
-8.972233826513905,13.589259174128388,2834.5990313887596
-8.961756239028619,13.591651622620317,2779.4816307950023
-8.951904847851868,13.593536101961023,2724.901769156456
-8.942651521036352,13.594870010814375,2670.8426215553286
-8.934232775324228,13.595329444671998,2613.3506756758693
-8.92650586713102,13.595105745671747,2552.8589156270027
-8.919354100971612,13.594326213995446,2490.549721090794
-8.912773309150104,13.592996391735442,2427.384515941143
-8.906814545941238,13.591061753659943,2363.9710574126243
-8.900583840575086,13.589508568284073,2314.6064052414895
-8.89456881347161,13.587552825473066,2277.9009585642816
-8.889153934577314,13.584721488051715,2249.630632917881
-8.88437879700322,13.581027375607372,2226.246057379246
-8.88007981868537,13.576722793293724,2205.408053326607
-8.876047572904936,13.57210113612086,2185.74418817997
-8.872097639118467,13.567403737019234,2166.507641608715
-8.868083106045594,13.562804192235033,2147.31710603714
-8.863925829388245,13.558410600559423,2127.9909410262107
-8.859558084088095,13.554292434079318,2108.450344154835
-8.854959031665654,13.550486975961427,2088.668361217976
-8.85010574979349,13.547019193611682,2068.641215193272
-8.844990945003785,13.543901962598168,2048.377490222454
-8.83961044960064,13.541144463760734,2027.8902342009546
-8.833961137812134,13.538753414787074,2007.1942118525506
-8.828032590398522,13.536733909923694,1986.305561363697
-8.821833142751597,13.535090147725398,1965.2405926036836
-8.815350291783671,13.533824647325076,1944.0149287104607
-8.808579869798848,13.532940935508767,1922.6447078704834
-8.801523960645072,13.532443490734936,1901.145381538868
-8.7941763127785,13.532332145061387,1879.5327445363998
-8.786094108510065,13.533066164403554,1864.1029214572907
-8.777644105078712,13.534186674711119,1854.3314212417604
-8.769221191670692,13.53528070613302,1848.4354893350603
-8.761071262343929,13.536130549607199,1844.9170213222505
-8.753301635267777,13.536650666577003,1842.8010303854944
-8.745964406640947,13.536813682465073,1841.5261136555673
-8.739044989527802,13.536612039872756,1840.7913111233713
-8.73254338392834,13.536038629247235,1840.4434817004205
-8.726441877134999,13.535088244380551,1840.40708493948
-8.720751930311494,13.533737709250154,1840.3837360739708
-8.715383937996041,13.53204250076026,1840.3500862383844
-8.710260797814541,13.530086310103407,1840.328797566891
-8.705282485065466,13.527952380626283,1840.3317161750795
-8.700385442386384,13.525715222681576,1840.3572969174386
-8.695536328210117,13.52341749358615,1840.2204656982424
-8.690710136361286,13.52110610519241,1839.9294632935525
-8.685887070284377,13.518807760308945,1839.5315024828913
-8.681067129979391,13.51653057614172,1839.0696756577493
-8.676246147750431,13.514274272787082,1838.5714520716667
-8.671426207445444,13.512034147863643,1838.0543433737755
-8.666612518684303,13.509805890855132,1837.5288222169877
-8.661807165314958,13.507583063977508,1836.9988373064996
-8.657010147337406,13.505361244753038,1836.4679939818384
-8.65221000358793,13.50313533893522,1835.937150657177
-8.647420279078199,13.500902491506784,1835.4073374295235
-8.642629512644492,13.498657888124882,1834.8782109332085
-8.63783457851489,13.49639928956028,1834.3499428510668
-8.63311153713951,13.494049218481562,1832.8525251674653
-8.62841975348336,13.491667966135793,1830.477293150425
-8.623716508663492,13.48930417977803,1827.5171377158165
-8.619002844603882,13.486981539257402,1824.2211706566811
-8.614668440870906,13.484289369932803,1815.014850332737
-8.610431977991514,13.481631292873258,1800.5000967621804
-8.605993381861111,13.47935170153461,1782.3961418509484
-8.60118177694792,13.477616130937813,1762.1337903428077
-8.596061762538342,13.476367704660383,1739.3834111952783
-8.59066459635161,13.475610733218591,1714.8386030602455
-8.585088219241301,13.475259062267746,1689.2242108654978
-8.579463913628176,13.475167813676553,1663.0664424991608
-8.573920878085046,13.475182256705097,1636.696130783558
-8.568550801921644,13.475165406505129,1610.3040153479576
-8.563428703664117,13.475007372902098,1583.990358967781
-8.558594176423492,13.474622113512776,1557.803404519558
-8.554072226375148,13.473941667729978,1531.7613503837586
-8.549839931191652,13.472951592525162,1505.9783656454088
-8.545772259996092,13.471771294797108,1480.3705832397939
-8.541677498777199,13.470653527545352,1454.7864930653573
-8.537368101219606,13.469909935498219,1429.0769027388096
-8.532708617206659,13.469851547596,1403.1254112982751
-8.527636531299898,13.470758939261435,1376.8536455297472
-8.52213100501984,13.472875066866166,1350.2182555174827
-8.516212876845971,13.476407339017786,1323.2027597093584
-8.509502886451655,13.48196017966667,1301.826529970169
-8.502478235017106,13.489106903682712,1285.6711752319336
-8.49566613607331,13.497334167764535,1273.094205815792
-8.489454185338696,13.506231521193957,1262.701385421753
-8.484069522239654,13.515472932194836,1253.5847693789005
