Latitude,Longitude,Altitude (m)
22.904508392506653,120.27492182184524,18.65736262959242
22.904510334594754,120.27492417451354,18.659721545398238
22.90451226256189,120.27492651191778,18.66207870256901
22.90451417663582,120.27492883421215,18.664435859739783
22.90451607727206,120.27493114170503,18.666796534180644
22.904517963331816,120.27493343439639,18.66915134650469
22.9045198364094,120.27493571166951,18.671509676098825
22.904521694910503,120.27493797337023,18.67386800569296
22.904523538835125,120.27494022026944,18.676224576652054
22.90452536932206,120.27494245175042,18.678581147611144
22.90452718523251,120.27494466765899,18.6809388909936
22.90452898679424,120.27494686799513,18.68329604816437
22.90453077423501,120.2749490532214,18.6856514467001
22.904532547099297,120.27495122210435,18.68800743144751
22.904534305387102,120.27495337587743,18.690365174829964
22.904536049553947,120.27495551361554,18.69271998715401
22.904537779144313,120.27495763562706,18.695074799478057
22.90453949393044,120.27495974191197,18.697431370437148
22.904541193684572,120.27496183169939,18.699786182761194
22.904542880001017,120.27496390668529,18.702142167508605
22.904544550374435,120.27496596486532,18.704498152256015
22.904546206626886,120.27496800731875,18.706851792156698
22.90454784761959,120.2749700329663,18.709206018269064
22.90454947335254,120.27497204273307,18.71156141680479
22.904551084736767,120.27497403646488,18.713915642917158
22.90455268040573,120.27497601369919,18.716267524182797
22.904554261953727,120.27497797443598,18.71862468135357
22.904555828014214,120.2749799183669,18.720977148830894
22.904557378587192,120.27498184610866,18.723330202519897
22.904558914128177,120.27498375735293,18.725684428632263
22.90456043463717,120.27498565225386,18.728036309897902
22.904561938975377,120.27498752973219,18.73039053601027
22.90456342850935,120.274989390713,18.732742417275908
22.904564902555812,120.27499123473376,18.735094298541547
22.90456636179804,120.27499306210284,18.73744617980719
22.90456780441397,120.27499487235767,18.739799233496193
22.90456923154239,120.27499666518989,18.742151700973512
22.904570643866574,120.27499844137043,18.74450182360411
22.904572039792217,120.2750002005909,18.746853118658066
22.90457341954708,120.27500194192622,18.74920558613539
22.904574784725465,120.27500366614731,18.751555122554304
22.904576133049794,120.27500537340833,18.753906417608263
22.904577465886614,120.27500706340093,18.756258885085586
22.904578782324897,120.2750087355084,18.758607835292818
22.90458008327567,120.27501039019324,18.760957957923413
22.904581368283417,120.27501202745549,18.763308666765692
22.90458263643711,120.27501364698676,18.765658203184607
22.904583889103293,120.27501524847871,18.76800656718016
22.90458512537094,120.27501683285642,18.770356689810754
22.904586345240045,120.27501839873224,18.772706812441353
22.904587548710612,120.27501994703128,18.775052831590177
22.904588736238157,120.27502147729098,18.77740471285582
22.90458990645613,120.27502298951136,18.779751904428007
22.904591060275564,120.27502448322984,18.782098509788515
22.90459219837973,120.27502595952572,18.78444745999575
22.904593319857604,120.27502741701137,18.786795237779618
22.904594423342633,120.27502885692022,18.78914301556349
22.904595511112397,120.275030278173,18.791489620923997
22.90459658248362,120.27503168092392,18.79383798491955
22.904597636545276,120.2750330647104,18.796183417856696
22.904598673752876,120.27503443107429,18.798529437005524
22.904599694106423,120.27503577831955,18.800877801001075
22.904600697605915,120.27503710675458,18.803221475303175
22.904601684251354,120.27503841653353,18.805568666875363
22.904602653359465,120.27503970781062,18.80791468602419
22.90460360493025,120.27504098027745,18.810259532749654
22.90460454078577,120.27504223377986,18.81260437947512
22.904605458192933,120.27504346816366,18.814950398623946
22.904606358290525,120.27504468312048,18.817294072926046
22.904607241534062,120.27504587957542,18.819637747228146
22.90460810769579,120.27504705660338,18.821983180165294
22.904608956092435,120.27504821512947,18.824326854467394
22.904609786951752,120.27504935361186,18.82666877013445
22.90461060027374,120.27505047297564,18.829014203071598
22.90461139628616,120.2750515732208,18.831357291162018
22.904612173850225,120.27505265373061,18.833699793040754
22.904612934104723,120.2750537145051,18.836042294919494
22.904613677049646,120.27505475616098,18.838385969221594
22.904614401773976,120.27505577808151,18.840726126253607
22.904615109188732,120.27505678011252,18.843068628132347
22.904615797471862,120.27505776287074,18.845412302434447
22.904616468900937,120.27505872512272,18.847751287043096
22.904617122109414,120.27505966779353,18.850093788921836
22.904617757097288,120.27506059072901,18.852436290800572
22.904618374320084,120.27506149362078,18.85477410298586
22.90461897286676,120.27506237616048,18.857115432441237
22.904619553648356,120.27506323865649,18.859458520531657
22.904620115753836,120.27506408095459,18.861794574081898
22.90462066009423,120.27506490259228,18.864134731113914
22.904621185303,120.2750657046488,18.866476060569287
22.90462169206341,120.27506648635324,18.868813872754576
22.90462218083098,120.27506724693473,18.871152857363228
22.90462265160571,120.27506798731831,18.87349301439524
22.90462310324881,120.275068707504,18.875830826580525
22.90462353530476,120.2750694067209,18.87816746634245
22.904623949823392,120.27507008573993,18.880506450951103
22.90462434521039,120.27507074317342,18.882844263136388
22.904624721921277,120.27507138087157,18.885180902898313
22.904625080411563,120.27507199636746,18.88751812887192
22.90462541885919,120.27507259166546,18.88985652726889
22.904625739086217,120.27507316584048,18.89219140839577
22.90462603995386,120.27507371904672,18.894528048157696
22.90462632168987,120.27507425128415,18.896866446554665
22.904626584977528,120.27507476209023,18.899200741469862
22.904626828222526,120.27507525161916,18.901535036385063
22.90462705256365,120.27507571956255,18.903872848570348
22.904627258000907,120.27507616638296,18.90620714348555
22.904627443851016,120.2750765920804,18.908540265977386
22.904627610797256,120.27507699619231,18.91087690573931
22.90462775792859,120.2750773785645,18.913210028231145
22.904627885472784,120.27507773965954,18.915543736934666
22.904627993202077,120.27507807901486,18.917878618061543
22.904628082255254,120.27507839601375,18.920210568130017
22.904628151265776,120.27507869219802,18.922543690621854
22.904628200461392,120.27507896525495,18.924878571748735
22.90462823029762,120.27507921718889,18.92720993560553
22.904628239863438,120.27507944722893,18.929541885674002
22.904628229842107,120.27507965506672,18.93187500816584
22.90462819977812,120.27507984070226,18.934206958234313
22.904628149899228,120.27508000351881,18.93653656345606
22.90462807997768,120.2750801450582,18.938869099736216
22.904627990013473,120.27508026393278,18.94120163601637
22.904627880006604,120.2750803606051,18.94353065502644
22.904627750412594,120.2750804347668,18.94586084645987
22.90462759940938,120.27508048641789,18.948192796528343
22.90462742904678,120.27508051571253,18.95052122932673
22.90462723864152,120.27508052203402,18.952850834548475
22.904627026827054,120.27508050615323,18.955181612193588
22.904626795425447,120.27508046683674,18.957510044991974
22.90462654398118,120.27508040500962,18.959837305366996
22.90462627112771,120.27508032082606,18.962168083012106
22.904625977548307,120.27508021336097,18.964495343387128
22.90462566438176,120.2750800830769,18.966822603762154
22.90462533003377,120.27507992951129,18.9691522089839
22.904624974732087,120.27507975281833,18.971479469358922
22.904624598476715,120.27507955268965,18.973805557310584
22.904624202178688,120.27507933020453,18.976133403897286
22.90462378492697,120.2750790835128,18.97846007806063
22.904623346266046,120.27507881384788,18.98078616601229
22.90462288665144,120.27507852090145,18.98311225396395
22.904622406310896,120.27507820451929,18.985440100550655
22.90462190501666,120.2750778639305,18.98776384365559
22.904621382540984,120.27507750021437,18.990088759183887
22.90462083820059,120.27507711290833,18.99241660577059
22.904620272906502,120.27507670201241,18.99473917645216
22.904619687114245,120.2750762673724,18.997062919557095
22.90461907922951,120.2750758082174,18.99939017993212
22.9046184508466,120.27507532531831,19.00171275061369
22.904617799915698,120.27507481867515,19.004035321295262
22.904617128031106,120.27507428797955,19.00636023682356
22.904616434509556,120.27507373353986,19.00868280750513
22.9046157195788,120.27507315473936,19.011005378186706
22.904614983011083,120.2750725511155,19.01332912129164
22.90461422435089,120.27507192343921,19.01565110576153
22.904613444053737,120.27507127109374,19.017971917808058
22.904612642802896,120.27507059500418,19.020295660912993
22.904611818320788,120.27506989501637,19.02261588674784
22.904610972657235,120.2750691692801,19.024936112582687
22.90461010535672,120.2750684194914,19.027258683264257
22.904609215508213,120.27506764472515,19.029580081522468
22.90460830356723,120.27506684559809,19.031897962510588
22.904607369989286,120.27506602133931,19.034219360768798
22.904606414318867,120.275065172103,19.03654193145037
22.904605436100457,120.27506429850587,19.03885864001513
22.904604435334054,120.27506340008539,19.04117827963829
22.904603412247415,120.27506247591646,19.043499091684822
22.90460236729606,120.27506152692416,19.04581638646126
22.904601300252228,120.27506055280016,19.04813485366106
22.904600209749375,120.27505955323606,19.050453907072548
22.904599097381805,120.27505852869442,19.052770615637304
22.904597962693998,120.2750574787127,19.055088496625427
22.90459680477493,120.27505640298253,19.05740813624859
22.90459562430787,120.27505530196645,19.059723672389985
22.90459442106506,120.27505417581865,19.062039794743065
22.90459319527426,120.27505302392241,19.064358848154548
22.904591946707708,120.27505184612353,19.066674384295943
22.90459067536541,120.2750506425762,19.068989334225655
22.90458938056409,120.27504941312624,19.071305456578735
22.904588062759263,120.27504815808201,19.073623337566854
22.90458672195093,120.27504687682678,19.075936528861526
22.904585358594606,120.27504556997728,19.078250892579558
22.904583972007018,120.2750442369168,19.080567014932633
22.904582562643682,120.2750428776453,19.082880206227305
22.904581128682537,120.27504149216281,19.08519515615702
22.904579672856674,120.27504008062351,19.087510106086732
22.904578192433,120.27503864256484,19.08982271116972
22.904576689005822,120.27503717844937,19.092136488676072
22.904575163030653,120.27503568781452,19.094451438605788
22.904573612685432,120.27503417066032,19.09676228505373
22.904572038881188,120.27503262744929,19.09907430392504
22.904570441617924,120.27503105648546,19.10138866764307
22.90456882066788,120.27502945931062,19.10370127272606
22.904567175347786,120.27502783592477,19.106010946750644
22.904565507251945,120.27502618555704,19.108325310468675
22.904563815469324,120.27502450820738,19.110634398281576
22.904562098633377,120.27502280341326,19.11294407230616
22.904560359021684,120.2750210720998,19.115257849812508
22.90455859481218,120.27501931365023,19.117568110048772
22.904556807143656,120.27501752837294,19.119876611649993
22.904554994421808,120.27501571611374,19.122186871886257
22.904553158696455,120.27501387533081,19.12449830454588
22.904551298828807,120.27501200879944,19.126806219935418
22.904549413907834,120.2750101138985,19.12911530774832
22.904547505300084,120.27500819170729,19.131424981772902
22.904545572094527,120.27500624237999,19.13373289716244
22.904543614518914,120.27500426545406,19.13604198497534
22.904541632345495,120.2750022607753,19.138351658999923
22.904539626029784,120.27500022803535,19.14065898817778
22.904537595116263,120.27499816815931,19.142965731143953
22.904535539604932,120.27499608053047,19.145274232745173
22.904533459268034,120.27499396391534,19.147580389499666
22.904531354105572,120.27499182078083,19.14988596004248
22.904529225256333,120.2749896491226,19.152196220278743
22.904527070442736,120.27498744909482,19.154500618398192
22.904524891714605,120.27498522146841,19.156806188941005
22.90452268702212,120.27498296470152,19.159112931907178
22.904520457731827,120.27498068110692,19.161419088661674
22.90451820429924,120.27497836775512,19.163723486781123
22.90451592558557,120.27497602695887,19.16603081595898
22.904513621135308,120.2749736574847,19.168332869231705
22.90451129140396,120.27497125902426,19.170638439774514
22.904508937302563,120.2749688326568,19.172942251682283
22.9045065567813,120.2749663779198,19.175247822225096
22.904504152345496,120.27496389373397,19.1775504617095
22.90450172194534,120.27496138087022,19.17985427361727
22.904499266264104,120.2749588390202,19.1821592579484
22.904496784618512,120.27495626864645,19.184460725009444
22.9044942779196,120.27495366959478,19.18676395070553
22.90449174548409,120.27495104109428,19.18906717640162
22.904489187995257,120.27494838360751,19.19136922967434
22.904486603858796,120.2749456966719,19.193670696735385
22.90448399466901,120.27494298075003,19.195975094854834
22.90448135905936,120.27494023553349,19.19827480328083
22.904478698168624,120.27493746148487,19.200575684130193
22.904476011313537,120.2749346573707,19.202879496037962
22.904473298949615,120.27493182411605,19.20517861825228
22.90447056016582,120.27492896141258,19.20747891288996
22.904467795645427,120.2749260691061,19.209780379951003
22.904465005160684,120.27492314673407,19.212081260800364
22.904462187117282,120.27492019460485,19.214379796803
22.904459344476074,120.27491721333516,19.216678332805635
22.90445647518724,120.27491420153737,19.21898038607836
22.904453579478535,120.27491116059912,19.221278922080995
22.90445065780548,120.27490808897859,19.223577458083632
22.904447708801523,120.2749049872925,19.225877752721313
22.904444734288727,120.27490185584921,19.228176288723947
22.90444173290055,120.274898694032,19.23047306609154
22.904438705548017,120.2748955026118,19.232773946940902
22.90443565086459,120.27489228020093,19.23506955188513
22.9044325702168,120.27488902757034,19.23736574304104
22.904429462693635,120.27488574487418,19.23966545146704
22.904426327611812,120.274882430879,19.241963401257994
22.90442316611012,120.27487908650991,19.24425841999054
22.904419978416318,120.27487571207527,19.246555783569814
22.90441676270834,120.27487230664997,19.248851974725724
22.904413520808255,120.27486887054239,19.251146993458274
22.904410252260544,120.27486540359834,19.253444943249228
22.904406956381933,120.27486190581781,19.255740548193458
22.904403633400182,120.2748583775092,19.258036153137684
22.90440028240426,120.27485481713066,19.260332930505278
22.904396904305198,120.27485122653236,19.26262619060278
22.90439350001402,120.27484760417252,19.26492179554701
22.904390068391947,120.27484395143875,19.26721740049124
22.904386608755704,120.27484026678924,19.269511833012107
22.904383121333048,120.27483655084072,19.27180509310961
22.904379607035004,120.27483280359318,19.274098353207112
22.90437606495055,120.2748290252008,19.276395130574706
22.904372495762953,120.27482521473851,19.278687218248848
22.90436889833343,120.27482137266882,19.280978719711307
22.904365273573006,120.27481749976268,19.283275497078897
22.904361621481684,120.27481359432406,19.285566412329676
22.90435794069292,120.27480965712388,19.287857913792134
22.90435423302877,120.27480568847051,19.290153518736364
22.90435049643942,120.2748016877472,19.292444433987143
22.904346732519173,120.27479765464561,19.294736521661285
22.904342940356994,120.27479359009081,19.297029781758788
22.90433912086392,120.27478949331191,19.299319524586203
22.904335272445643,120.27478536415472,19.301611612260345
22.904331396240952,120.2747812029276,19.303903699934484
22.90432749202209,120.27477700916802,19.3061934427619
22.904323559561302,120.27477278318432,19.308484358012677
22.904319598175313,120.27476852513068,19.31077644568682
22.904315608547392,120.27476423408204,19.313066188514235
22.904311591588577,120.27475991050092,19.31535593134165
22.904307545249043,120.27475555438733,19.317645674169064
22.90430347066758,120.27475116558708,19.319936589419843
22.904299366477645,120.274746743946,19.322225159823898
22.90429523495681,120.27474228930988,19.324514316439632
22.90429107405526,120.27473780198713,19.326804645478727
22.904286884684023,120.2747332819777,19.32909321588278
22.904282667526374,120.27472872881908,19.331381786286833
22.904278419621463,120.27472414189454,19.33367152911425
22.904274144385653,120.27471952212915,19.33595951330662
22.904269839313613,120.27471486952291,19.338245738863947
22.904265505999646,120.27471018330493,19.340536654114725
22.904261143532718,120.27470546393776,19.342822293460372
22.904256751912833,120.27470071126719,19.34510969144106
22.90425233113999,120.27469592436815,19.34739943426848
22.904247880303156,120.2746911043199,19.349684487402442
22.904243401452153,120.27468625112245,19.351971885383133
22.904238892537162,120.27468136369652,19.354260455787184
22.904234355152482,120.27467644265884,19.356545508921148
22.90422978747606,120.27467148816359,19.35883232069016
22.904225191102192,120.2746664991315,19.361119132459166
22.904220564436578,120.27466147648767,19.363405358016493
22.904215908618006,120.27465641992372,19.36569158357382
22.904211222963202,120.27465132882291,19.367976050496104
22.9042065083832,120.27464620411037,19.37026286226511
22.90420176328369,120.27464104516935,19.372546742975715
22.904196988575713,120.27463585138311,19.374831796109678
22.9041921840315,120.27463062398512,19.377118021667005
22.904187350562086,120.27462536143356,19.37940190237761
22.9041824858899,120.27462006511607,19.381686369299892
22.904177591609237,120.27461473349084,19.383972008645536
22.904172667492347,120.27460936763711,19.38625588935614
22.904167713766977,120.27460396724653,19.388537425220015
22.904162729749867,120.27459853201076,19.390824823200706
22.904157714757737,120.27459306192978,19.393107531487942
22.904152669929374,120.27458755715777,19.395390239775182
22.904147595037024,120.27458201692382,19.39767529290915
22.904142490536202,120.27457644215303,19.39995624256134
22.904137354604845,120.27457083207449,19.402239537060264
22.904132188153984,120.27456518699654,19.404524003982544
22.90412699118362,120.27455950630248,19.406805539846424
22.90412176414927,120.27455379060903,19.40908766192198
22.904116506595415,120.27454803945365,19.4113709564209
22.904111218522054,120.27454225314469,19.413651906073095
22.904105899018163,120.27453643121962,19.415935200572015
22.904100548994766,120.27453057383259,19.41821556401253
22.904095168907382,120.27452468067527,19.42049885851145
22.904089756478434,120.27451875159348,19.422778049528603
22.904084314441015,120.27451278720392,19.42505958539248
22.904078841200818,120.27450678735242,19.427341121256354
22.904073336985604,120.27450075065134,19.42962265712023
22.904067801567614,120.27449467817996,19.431901848137382
22.904062235174603,120.27448857040083,19.43418397021294
22.904056636895547,120.27448242577212,19.436462575018407
22.904051008096985,120.27447624568147,19.438742938458923
22.90404534786789,120.2744700290496,19.44102506053448
22.904039656208262,120.27446377587653,19.443303079128267
22.904033933118104,120.27445748677896,19.4455828563571
22.904028178825165,120.27445116067764,19.447863219797615
22.904022393101695,120.27444479818928,19.450142410814763
22.904016575719933,120.27443839962226,19.45242042940855
22.904010726452125,120.27443196420566,19.454700206637384
22.90400484598154,120.27442549224784,19.456978811442855
22.90399893316939,120.27441898344044,19.459256830036644
22.903992989154467,120.27441243716675,19.461535434842112
22.90398701370901,120.27440585466019,19.463815212070944
22.903981006149746,120.27439923514987,19.46609205824137
22.903974966476675,120.27439257832744,19.468370076835157
22.903968894234286,120.2743858848096,19.47064926785231
22.90396279078912,120.27437915382546,19.472926700234414
22.903956655457904,120.27437238583755,19.475202960193158
22.903950487557367,120.27436557961244,19.47748215121031
22.90394428799854,120.27435873730865,19.47975665253401
