Latitude,Longitude,Altitude (m)
22.90367548088815,120.27309128393695,25.633840048074724
22.90366937723842,120.27309450154014,25.55371615982056
22.903662842040568,120.27309772889345,25.473595885634424
22.903655887575592,120.27310096046648,25.39346838331223
22.903648519841177,120.27310419085671,25.313348109126093
22.903640747119848,120.27310741472556,25.233229641973974
22.90363257969336,120.27311062657458,25.153107560753824
22.903624023273807,120.27311382103322,25.072990900635723
22.903615089570952,120.2731169927629,24.99287424051762
22.90360578429689,120.27312013652093,24.912757580399514
22.903596117733375,120.27312324623345,24.83264995545149
22.90358609759172,120.27312631720125,24.75254413753748
22.903575732154458,120.2731293436062,24.672432898521425
22.903565029418502,120.27313232030154,24.592334308743478
22.90355399995121,120.27313524150111,24.512233911931517
22.90354265032149,120.27313810221798,24.432137129187588
22.90353098938307,120.27314089669798,24.352049381613735
22.903519025989684,120.27314361969842,24.271961634039883
22.90350676785265,120.27314626559298,24.191879307568076
22.903494224968117,120.27314882945869,24.11180601626635
22.903481403904983,120.27315130515775,24.031727303862574
22.903468314659403,120.27315368802289,23.95166124069691
22.903454964942693,120.273155972236,23.871600598633293
22.903441363322976,120.27315815261834,23.791539956569675
22.90342751836839,120.27316022315999,23.711488349676134
22.903413438647057,120.27316217925762,23.631442163884643
22.90339913272711,120.27316401528495,23.551399592161182
22.90338460917668,120.2731657253599,23.471367862641813
22.903369875421475,120.27316730462344,23.391336133122447
22.903354941172044,120.27316874744923,23.31131343877316
22.90333981442531,120.27317004853069,23.231297972559933
22.903324503749396,120.27317120236935,23.151282506346703
22.90330901714123,120.27317220404223,23.07128330343962
22.90329336431135,120.2731730473476,22.991284100532535
22.903277552685477,120.27317372755427,22.91128851169348
22.903261590831733,120.27317423890804,22.831305572092536
22.90324548731825,120.27317457629412,22.75132624655962
22.903229250713164,120.27317473415015,22.671355956196788
22.9032128898702,120.27317470742523,22.591391086936
22.90319641364309,120.2731744901734,22.511433445811274
22.903179828886348,120.2731740775995,22.43147580468655
22.903163144739302,120.27317346433301,22.35153261983395
22.9031463706269,120.27317264487547,22.27159304904938
22.903129514260456,120.27317161340879,22.191657092332843
22.90311258363689,120.27317036552144,22.111731977820398
22.903095588181145,120.27316889526743,22.031810477375988
22.903078535318933,120.27316719746803,21.95189981913567
22.903061435046407,120.27316526688054,21.87199277496338
22.903044293932464,120.27316309807048,21.792092958927157
22.903027122258862,120.27316068592302,21.71220217806101
22.90300992773691,120.2731580248758,21.63231320422888
22.90299271836354,120.27315510994187,21.55243326556683
22.90297550327808,120.27315193549495,21.472558748006822
22.902958290477454,120.27314849648414,21.39269145858288
22.902941088529793,120.27314478779464,21.312827783226968
22.902923906003224,120.27314080399192,21.232973143041136
22.902906751751484,120.2731365395776,21.15312392395735
22.90288963320028,120.27313198988439,21.07327651190758
22.902872559488955,120.27312714903026,20.993438135027887
22.90285553890003,120.27312201222004,20.913603372216226
22.90283858000164,120.27311657437092,20.83377945160866
22.902821691647514,120.2731108300164,20.753957338035107
22.902804880977758,120.27310477375399,20.674140645563604
22.902788157131713,120.2730984006287,20.594331181228164
22.90277152867751,120.27309170584537,20.51452713799477
22.902755004183273,120.2730846837138,20.434723094761374
22.90273859107472,120.27307732905523,20.354929893732074
22.902722299633602,120.27306963701056,20.275138499736787
22.902706136143216,120.2730616026568,20.19534891277552
22.902689976651292,120.27305310854497,20.249019630074503
22.90267404192996,120.27304459534848,20.246083199799063
22.902658268003854,120.27303634134533,20.237252224564553
22.902642610033098,120.27302850320872,20.207466882884503
22.90262696577135,120.27302088309116,20.187746720671655
22.902611238969957,120.27301316553634,20.168946338772777
22.902595176583496,120.27300500350398,20.24143370127678
22.90257857383368,120.27299662709687,20.274415686130524
22.902560984035365,120.2729882384142,20.303062596380713
22.90254271992527,120.27298000445472,20.28416282761097
22.902526834613482,120.27297181819091,20.287366698920728
22.902517497066135,120.27296377667642,20.29657895833254
22.90251761273588,120.27295589707782,20.28514946818352
22.902525255507246,120.27294725799291,20.288649693071843
22.90253673565814,120.27293629192224,20.292151724994184
22.902548907828276,120.27292151556901,20.45134057956934
22.902561320191637,120.27290350809031,20.536477180182935
22.902574192092338,120.2728834387971,20.612499101221562
22.90258790224169,120.27286294027488,20.29115604925156
22.90260093036795,120.2728424804814,20.14134208714962
22.902612280568878,120.27282308504928,20.006231960833073
22.902621152295595,120.27280527669677,20.152184291243554
22.902629113230166,120.27278883604619,20.173626556873323
22.902637593393372,120.27277257313548,20.184096511960032
22.902647579833715,120.27275564063136,20.105132739543915
22.90265829170901,120.27273861638022,20.068039752304557
22.902668711982304,120.27272281546531,20.034961994647983
22.902677323809097,120.27270939175729,20.162683158874515
22.902681035522725,120.27269973157918,20.221384658873085
22.902675614181693,120.27269469477962,20.272839952468875
22.90265865271286,120.27269458959022,20.2200709451437
22.90263438034487,120.27269755060544,20.208955878913404
22.902609697563488,120.27270158156036,20.201917481422427
22.902589783802892,120.27270525100963,20.19964423263073
22.902573915056156,120.27270847959369,20.200504380822185
22.902559253844448,120.27271136283174,20.20278124368191
22.902543472207025,120.27271374614442,20.310681051790716
22.902526294821335,120.2727157117684,20.37029691100121
22.902507862061896,120.27271725099251,20.424446492314342
22.9024885577809,120.2727185248855,20.360416049003604
22.902469094703907,120.27271966494614,20.34835590398312
22.902450696359786,120.27272115326184,20.341790949404242
22.902434129024904,120.27272339928965,20.294260533690455
22.902418131470622,120.2727257848081,20.265461832582954
22.902400760159605,120.27272724708618,20.237281137108805
22.902381007765445,120.27272730672175,20.253407108664515
22.90236193053988,120.27272852275338,20.24740775573254
22.902348197542178,120.27273492285934,20.243448544204238
22.902343269725396,120.27274956135228,20.23080292016268
22.90234555684472,120.27277061854033,20.231907017946245
22.90235121452332,120.27279382805915,20.233414084315303
22.902356809940184,120.27281539919035,20.280675251960755
22.90236112527852,120.27283502998395,20.300364694595338
22.902363944478676,120.27285397029331,20.315106478095057
22.902365290388992,120.272873373062,20.34050614821911
22.902365669957124,120.27289342611566,20.360202818989755
22.90236562397483,120.27291387022902,20.379086324453358
22.902365583704622,120.27293441551984,20.385718139290812
22.902365825611472,120.27295474867364,20.398139691114427
22.902366593601464,120.27297457443765,20.411430426299574
22.9023680333328,120.27299380039354,20.376543827593327
22.902369627576064,120.2730127906203,20.36225560963154
22.902370826257357,120.27303221541466,20.348948611140255
22.902371309214246,120.2730525094721,20.34738552671671
22.902371492286612,120.27307305450717,20.340217022776606
22.90237190312841,120.27309277727156,20.333274398088456
22.90237277464997,120.27311097406242,20.34865948569775
22.902373672875527,120.27312879510608,20.353598109662535
22.902374061725794,120.27314810929253,20.35629601144791
22.90237379911263,120.27316984086913,20.408109097778798
22.902374017885535,120.27319112688129,20.44118324136734
22.90237572351448,120.27320733145112,20.47550785249472
22.902376791246198,120.27321193651223,23.133522976040844
22.902379358400548,120.27321108700514,24.620594513714316
22.902380053275838,120.27320849986701,25.990570247173313
22.902376706850124,120.27320566459636,27.793787806987766
22.902373973616864,120.27320363657161,29.414061243057255
22.90237715781933,120.27320184152677,31.02919908845425
22.90239171892673,120.27320252307607,30.01067520773411
22.902413059138055,120.27320117116612,30.25281776583195
22.902440558549156,120.27319797932883,30.529098810553553
22.902473848016456,120.27319474561396,30.375143126487735
22.902511405126177,120.27319041771199,30.38685270690918
22.902552629538054,120.27318449507415,30.402602815389635
22.90259678796302,120.2731769855645,30.374817860364917
22.90264227958891,120.27316836537244,30.357029417514806
22.902687462762145,120.27315946891636,30.33507395422459
22.90273108710705,120.2731509349729,30.39589510512352
22.9027734359431,120.27314296634454,30.41526650977135
22.90281495081456,120.27313538260611,30.433607905030254
22.902856020714506,120.27312818046497,30.256717345237735
22.90289634004632,120.27312095019234,30.169213530063633
22.902936089026326,120.27311370415967,30.08526957190037
22.902975343910875,120.27310655070518,29.998824678659442
22.903014103557545,120.27309948285993,29.911085949063303
22.903052377391283,120.2730924920566,29.82330023658276
22.90309017540824,120.2730855757378,29.73544947087765
22.903127525312033,120.27307874432495,29.64764930212498
22.9031643634129,120.27307198503101,29.559764202773575
22.903200709703142,120.2730652999019,29.471812243163587
22.90323658274704,120.27305869031225,29.38382052880526
22.9032719828302,120.27305215520711,29.29577460342646
22.903306921376792,120.27304569401107,29.20767988812924
22.903341408097365,120.27303930471017,29.119549032151703
22.90337545041763,120.2730329858339,29.031369386255744
22.90340905404967,120.27302673591174,28.943148178577427
22.90344222070712,120.27302055440026,28.854890830218796
22.90347495296041,120.273014441747,28.76660095524788
22.903507249952728,120.27300839900688,28.678276746630672
22.90353911653935,120.27300242640369,28.589927239537243
22.903570546722584,120.27299652278658,28.501534363627435
22.903601542787264,120.27299068802769,28.41310896110535
22.90363210701823,120.27298492215898,28.32465103197098
22.903662242271515,120.27297922518046,28.236153348088266
22.903691949689545,120.27297359629294,28.147632172763352
22.903721231271547,120.27296803603986,28.05907485675812
22.903750090730377,120.27296254387777,27.970494049310688
22.90377852892285,120.2729571195829,27.881884329319004
22.90380654899061,120.27295176296344,27.7932493108511
22.90383415121926,120.27294647430712,27.704590800940995
22.90386133989287,120.27294125268686,27.6159106066227
22.903888117010666,120.27293609823053,27.527212341964248
22.903914484000673,120.27293101090618,27.438492392897608
22.903940442576513,120.27292599033017,27.349754373490814
22.903965996736652,120.27292103618284,27.261000090777877
22.90399114705229,120.27291614824041,27.172234965860845
22.904015897521898,120.27291132637504,27.083449963569645
22.904040248145467,120.27290657020308,26.994648697972302
22.90406420292146,120.27290187982044,26.90584201127291
22.904087763563506,120.27289725436401,26.817020868301395
22.904110931214017,120.27289269399361,26.7281906901598
22.904133710442668,120.27288819848549,26.639353283882144
22.904156101249455,120.27288376713635,26.55050684243441
22.904178106776023,120.27287940023389,26.46165317285061
22.90419972987842,120.27287509691499,26.372792275130752
22.904220971127856,120.2728708574354,26.28392776334286
22.904241833951577,120.27286668150741,26.19505963748694
22.904262320348817,120.27286256823591,26.10618428349495
22.904282433175617,120.27285851766887,26.017308929502967
22.904302173003188,120.27285452980628,25.92842996144295
22.904321544401196,120.27285060381699,25.839554607450964
22.90434054651283,120.27284673954115,25.75067383235693
22.904359184764573,120.2728429374423,25.661796671330933
22.904377459442028,120.27283919573027,25.572917703270914
22.90439537368684,120.27283551517225,25.484044156312944
22.90441292864143,120.27283189500103,25.395170609354974
22.904430125448215,120.27282833566416,25.306300676465035
22.904446969533673,120.27282483556327,25.21742712950707
22.90446346175462,120.27282139552949,25.128562617719176
22.904479602396663,120.27281801444398,25.039705334067346
22.904495396600673,120.27281469224279,24.950846243381502
22.90451084522347,120.2728114289579,24.861996187865735
22.904525949978673,120.27280822363026,24.77315516752005
22.904540712579912,120.27280507651564,24.684314147174362
22.904555137311252,120.27280198691074,24.595482161998753
22.904569224458296,120.27279895463973,24.506657404959203
22.904582976877087,120.27279597920712,24.41783987605572
22.904596396852458,120.27279306075675,24.329031382322313
22.904609486669248,120.27279019808987,24.240228309690956
22.90462224804108,120.27278739139824,24.151434272229675
22.904634683823996,120.272784640586,24.062649269938472
22.904646794018,120.27278194523754,23.973876916885377
22.904658583192756,120.27277930450573,23.8851063708663
22.904670053347495,120.27277671874221,23.79635028111935
22.90468120533903,120.27277418697199,23.707603226542474
22.904692041737807,120.2727717088274,23.618863400101663
22.904702565114256,120.27276928483595,23.530138029932978
22.904712777182006,120.27276691400661,23.44142169493437
22.9047226807971,120.27276459638735,23.352714395105842
22.904732277101953,120.27276233093922,23.264019744515423
22.904741568952613,120.27276011806181,23.17533051502705
22.904750556920284,120.2727579571797,23.086657548844816
22.904759246145847,120.27275584766954,22.99799542486668
22.904767636058093,120.27275378986698,22.909342336058618
22.904775729513062,120.27275178265315,22.820703703522685
22.9047835293668,120.27274982631576,22.732072299122812
22.90479103790414,120.27274792059906,22.643457158029083
22.90479825541069,120.27274606481576,22.55485105210543
22.90480518502809,120.27274425871012,22.466257595419886
22.904811830183597,120.27274250164278,22.37767678797245
22.90481819087721,120.27274079398138,22.289103208661082
22.90482427110739,120.27273913491074,22.200549506723885
22.904830070874137,120.27273752444682,22.112003032922747
22.904835593890308,120.27273596211013,22.02346920835972
22.90484084215513,120.27273444734125,21.934949840068818
22.904845817096625,120.27273298025203,21.846439506947995
22.904850521285233,120.27273156031504,21.757943630099298
22.90485495557777,120.2727301872905,21.669458595454696
22.904859124829503,120.27272886061898,21.580984403014185
22.90486302846923,120.27272758073207,21.492526473879817
22.904866669352987,120.27272634651085,21.40407938694954
22.90487005147924,120.27272515797135,21.31564314222336
22.90487317370557,120.27272401463405,21.227221353769306
22.904876040030437,120.27272291669073,21.138808600485326
22.90487865302428,120.27272186321436,21.05041211050749
22.904881014686328,120.27272085433279,20.962024655699732
22.90488312358856,120.27271988964642,20.873657078266145
22.90488498687109,120.27271896870774,20.78529311490059
22.904886603677095,120.27271809134088,20.69694360780716
22.90488797657702,120.27271725724218,20.608606749951843
22.904889109283715,120.2727164663317,20.52028254133463
22.904890000369168,120.27271571825783,20.431969174921516
22.904890656116667,120.27271501209347,20.343668457746507
22.904891075383794,120.27271434833415,20.25538038980961
22.90489126245462,120.2727137264364,20.167104971110824
22.90489121761474,120.27271314598464,20.07884039461613
22.9048909434346,120.27271260697889,19.990584853291512
22.904890443912663,120.27271210917937,19.902343768239025
22.904889718763314,120.27271165175493,19.81411713945866
22.904888769985796,120.27271123513715,19.725897738814357
22.904887601292952,120.27271085819116,19.637694601476195
22.904886214398417,120.27271052114074,19.54950049930811
22.9048846098734,120.27271022390596,19.461319046378136
22.904882791716354,120.27270996624708,19.373146628618244
22.904880761355304,120.2727097473649,19.284990474164488
22.904878520218276,120.27270956719549,19.196845161914826
22.904876070304493,120.27270942557901,19.108708884835245
22.904873415898027,120.27270932229167,19.02058164292574
22.904870556427664,120.27270925691793,18.932468857288363
22.904867494749446,120.27270922956964,18.844368720889094
22.904864234576234,120.27270923914395,18.756275812625887
22.904860775336818,120.27270928612033,18.668200974702838
22.90485712188647,120.27270936981152,18.580127943813803
22.904853273939587,120.27270949032939,18.49207117623091
22.904849234923418,120.27270964705056,18.404027057886125
22.904845006837196,120.27270984013488,18.31599197471142
22.904840590252128,120.27271006868726,18.227967733740808
22.904835989166674,120.27271033307532,18.13995433497429
22.904831204723255,120.27271063273963,18.051951778411865
22.9048262392067,120.27271096721667,17.963960064053538
22.90482109490185,120.27271133677814,17.875982805967332
22.90481577409353,120.27271174060888,17.78801639008522
22.904810277352958,120.27271217880481,17.700057202339174
22.904804608964195,120.27271265071057,17.61210885679722
22.904798770069657,120.27271315674174,17.52417135345936
22.904792761811763,120.27271369632291,17.436242885291577
22.904786587617764,120.27271426881474,17.34832887339592
22.904780249201288,120.27271487416925,17.260423896670343
22.904773748275957,120.27271551227457,17.17252976214886
22.904767087126608,120.27271618279505,17.08464466279745
22.90476026775247,120.27271688566674,16.99677040565014
22.90475329272398,120.27271762013841,16.90890879774094
22.904746164040375,120.27271838656169,16.82105803203583
22.90473888227286,120.27271918408945,16.733214494466782
22.904731452276703,120.27272001289752,16.645385413169862
22.9047238734807,120.27272087228259,16.557563560009005
22.904716149026502,120.27272176256436,16.46975254905224
22.904708281770148,120.27272268335919,16.38195238029957
22.904700272854054,120.27272363397981,16.294163053750992
22.904692125134265,120.27272461418644,16.20638456940651
22.904683840895615,120.27272562431475,16.118615120232107
22.904675419566896,120.27272666354956,16.030858320295813
22.90466686571778,120.27272773171505,15.943110555529596
22.904658180490674,120.2727288289391,15.855373632967474
22.90464936845526,120.2727299544225,15.767647552609445
22.904640427897903,120.27273110810133,15.679930507421496
22.904631363959485,120.27273229007149,15.59222430443764
22.90462217664,120.27273349950181,15.504528943657876
22.904612868509897,120.27273473652018,15.416844425082209
22.904603442139607,120.27273600059912,15.329170748710634
22.904593898957152,120.27273729172266,15.241507914543153
22.904584242675394,120.27273860934736,15.153855922579767
22.904574473865534,120.2727399537449,15.066211158752443
22.90456459538362,120.27274132386039,14.97857904416323
22.904554608657673,120.27274271986963,14.890958675295115
22.904544515972525,120.27274414166075,14.803346438080073
22.90453431961301,120.27274558894602,14.71574775362015
22.904524021863967,120.27274706079841,14.628160814881326
22.904513623582208,120.27274855779332,14.540581104278566
22.90450312876619,120.2727500790676,14.453013139396907
22.90449253912954,120.27275162478114,14.365457823753358
22.904481855243468,120.27275319431054,14.27791063976288
22.90447107939281,120.27275478773572,14.190376105010511
22.90446021557602,120.27275640459314,14.102853315979244
22.904449264935522,120.27275804457913,14.015342272669079
22.90443822861373,120.27275970737401,13.927838457494975
22.90442710946669,120.27276139270604,13.840346388041974
22.904415910350437,120.27276310068713,13.752866967827083
22.90440463126498,120.27276483043815,13.665398389816286
22.904393276779988,120.27276658234273,13.577939750492574
22.904381848037872,120.27276835547379,13.490495567440988
22.904370346466656,120.27277014967149,13.40306041955948
22.904358774636783,120.27277196515962,13.315636113882066
22.904347134261872,120.27277380110702,13.228224457442762
22.90433542819797,120.27277565776943,13.14082364320755
22.90432365844431,120.27277753436364,13.053435478210451
