Latitude,Longitude,Altitude (m)
22.901834310751408,120.27404692025108,20.013434147521853
22.901842464161554,120.27405088905614,20.01357313596457
22.90185071798721,120.27405481956134,20.013712165035308
22.90185907099376,120.2740587122069,20.01385172227025
22.9018675231812,120.27406256743305,20.013991482645274
22.901876073520683,120.27406638450609,20.014131364904344
22.90188472262952,120.27407016445319,20.014271734699605
22.90189346886156,120.27407390727438,20.014412267006932
22.901902312216794,120.27407761223593,20.01455328685045
22.90191125248946,120.27408128007156,20.014694428578018
22.90192028823916,120.27408491078127,20.014836098469793
22.901929419671678,120.2740885045118,20.014977808989585
22.901938645552388,120.27409206155663,20.015120007045567
22.901947966498604,120.27409558162229,20.015262326985596
22.901957381069934,120.27409906529574,20.015404971949756
22.90196688967792,120.27410251228349,20.015547901310025
22.901976490470634,120.27410592258556,20.01569119632244
22.90198618385962,120.27410929708238,20.015834572590887
22.901995969433333,120.27411263489351,20.015978395767508
22.902005845545624,120.27411593645918,20.016122706480324
22.902015813636872,120.27411920251309,20.016266976565124
22.90202587144362,120.2741224321748,20.01641165293008
22.902036018965862,120.27412562617802,20.0165564918071
22.90204625579206,120.27412878422925,20.01670157445222
22.902056581922217,120.27413190706223,20.016847185261547
22.902066995710175,120.27413499438343,20.016993121095002
22.902077497361706,120.2741380461929,20.017138935044407
22.902088087082575,120.27414106293085,20.017285236530004
22.90209876281509,120.27414404415704,20.017431822411716
22.90210952455925,120.27414699075193,20.01757865206152
22.902120372315053,120.27414990227531,20.017725847363472
22.902131305053658,120.27415277843367,20.017873286433517
22.90214232298083,120.27415562054772,20.018020928643644
22.902153424656184,120.27415842773698,20.0181686521098
22.902164610285485,120.27416120044168,20.018316944368184
22.90217587863412,120.2741639385151,20.01846539913863
22.902187229702093,120.27416664239745,20.018614260189235
22.902198663283627,120.27416931223549,20.018763080611823
22.90221017793834,120.2741719477357,20.018912429198622
22.90222177428354,120.27417454948507,20.019061818413437
22.9022334504673,120.27417711719013,20.019211654536427
22.90224520710693,120.27417965099761,20.019361693799496
22.90225704317358,120.27418215134773,20.019512017458677
22.902268958049945,120.27418461838724,20.01966274739802
22.902280951118712,120.27418705123569,20.019813355453312
22.902293023202965,120.2741894513605,20.019964288532734
22.90230517142193,120.27419181758772,20.020115709148346
22.902317397421758,120.27419415138479,20.02026733290404
22.902329699556294,120.27419645172452,20.020419322311877
22.902342078237083,120.27419871919385,20.020571392975747
22.902354531817963,120.27420095379281,20.020723504267632
22.90236706071048,120.27420315581487,20.020876184351742
22.902379662856927,120.27420532467308,20.021029148831964
22.902392339491932,120.27420746198158,20.021182194568215
22.902405089792413,120.2742095661262,20.021335646584628
22.902417912523752,120.27421163842766,20.021489301741124
22.902430806862874,120.27421367815221,20.02164303815365
22.902443774044396,120.27421568618033,20.021797140218318
22.90245681201062,120.27421766221852,20.021951526679096
22.90246991993847,120.27421960553308,20.022106156907974
22.902483099474097,120.27422151773816,20.022261071532963
22.902496347736736,120.27422339810006,20.02241614867002
22.902509665961002,120.27422524705901,20.022571510203182
22.902523052089197,120.274227064615,20.02272695299238
22.902536506121322,120.2742288506213,20.022883045829833
22.902550028880455,120.27423060566488,20.02303909803927
22.902563618308903,120.27423232915875,20.023195394016803
22.90257727358359,120.27423402154317,20.023351893134414
22.902590995939125,120.27423568325834,20.023508798532188
22.90260478290628,120.27423731415752,20.023665825814007
22.902618635308134,120.27423891438747,20.023823300004004
22.902632552321602,120.27424048424166,20.023980855450034
22.902646532712076,120.2742420226929,20.02413873592019
22.90266057689109,120.27424353120861,20.024296738274394
22.902674684447106,120.27424500964206,20.024454943768678
22.902688854557045,120.27424645755302,20.02461359617114
22.902703085574753,120.27424787538169,20.024772370457647
22.902717379146388,120.27424926327485,20.02493142914027
22.90273173239117,120.27425062152597,20.025090731590986
22.90274614654372,120.27425194925458,20.025250237181783
22.902760620369424,120.27425324792813,20.025409986540673
22.902775153456737,120.27425451695963,20.025569898411632
22.902789744982588,120.27425575649585,20.025730175934733
22.90280439494697,120.27425696639001,20.02589077848196
22.902819103349888,120.27425814737586,20.02605146228522
22.902833868545184,120.27425929871966,20.02621234922856
22.902848690532856,120.27426042130188,20.02637364245206
22.902863568078292,120.27426151512252,20.026535098187626
22.90287850118149,120.27426257959459,20.02669696020335
22.90289348943091,120.27426361559857,20.026858740963043
22.90290853282655,120.27426462298772,20.02702104988694
22.902923630545338,120.27426560132179,20.027183399438858
22.902938780941113,120.27426655192149,20.0273460740149
22.902953984425416,120.27426747375958,20.027509073615075
22.902969240998246,120.27426836756982,20.027672113843263
22.90298454860191,120.2742692330587,20.027835519723595
22.90299990888256,120.27427007095994,20.027999128744007
22.90301531937097,120.27427088024633,20.028162981532514
22.903030780478666,120.27427166238532,20.028327118717133
22.903046290971044,120.2742724160562,20.028491459041835
22.903061850848097,120.27427314243293,20.028656165018678
22.903077460109827,120.27427384151551,20.028820952251554
22.903093117933157,120.27427451301044,20.02898610513657
22.903108822671932,120.27427515691774,20.02915129864961
22.903124574737685,120.27427577382436,20.029316735930742
22.903140373718884,120.27427636373031,20.02948270137608
22.903156219203986,120.27427692678232,20.029648748077452
22.903172109546833,120.2742774625402,20.02981511980295
22.90318804557051,120.2742779720311,20.029981572784482
22.903204026451935,120.27427845393437,20.030148310162126
22.903220051368027,120.27427891001092,20.030315372563898
22.903236119084177,120.27427933938027,20.03048243496567
22.903252230834994,120.27427974248268,20.030650188043712
22.903268384562786,120.2742801185844,20.030817819237708
22.903284580267552,120.27428046929963,20.03098581608385
22.903300817949297,120.27428079360116,20.03115405669808
22.90331709596186,120.27428109207597,20.031322500452397
22.903333413482166,120.27428136457729,20.03149126923084
22.903349772979443,120.27428161139864,20.031660241149364
22.903366171161387,120.27428183239326,20.031829456835986
22.903382607616454,120.27428202770788,20.031998835034667
22.903399082344645,120.27428219748927,20.032168497629463
22.903415594934426,120.2742823423244,20.032338485248385
22.90343214497425,120.27428246147953,20.03250867600739
22.903448731641042,120.27428255554165,20.032679110534488
22.903465354934802,120.27428262495097,20.032849666945637
22.903482012797838,120.27428266868033,20.033020629636944
22.903498706053227,120.2742826881971,20.033191714212297
22.903515434700964,120.27428268247414,20.033363286323844
22.9035321970949,120.27428265253862,20.033534939691425
22.90354899282349,120.2742825979503,20.03370671494305
22.9035658214752,120.27428251841572,20.033878937102855
22.90358268346157,120.27428241481532,20.03405124051869
22.903599576313358,120.27428228700236,20.0342239908427
22.903616500853648,120.27428213483012,20.03439686305076
22.903633457493978,120.27428195903227,20.034569979026912
22.903650443353577,120.27428175858164,20.034743135631082
22.90366745843244,120.27428153465216,20.03491706416756
22.90368450355365,120.27428128724385,20.035090748935936
22.903701577894125,120.27428101576972,20.035264961868524
22.903718679807714,120.27428072140371,20.035439337313175
22.903735809705953,120.27428040267841,20.035613997153938
22.9037529671773,120.27428006106123,20.035788941390813
22.903770150575607,120.2742796962587,20.03596404813975
22.903787359900868,120.27427930812406,20.0361394392848
22.903804595976162,120.2742788969508,20.036315074197947
22.903821855920715,120.27427846273893,20.03649087162316
22.903839141792222,120.27427800636892,20.036667115956543
22.903856449886838,120.27427752622656,20.036843400917945
22.903873783085327,120.27427702407279,20.03702017341554
22.903891138506925,120.27427649932062,20.037196945913134
22.903908516151624,120.27427595197008,20.03737420594692
22.90392591601943,120.27427538231463,20.03755154723674
22.90394333728726,120.27427479064777,20.037729254178704
22.903960779132042,120.27427417638252,20.03790708300471
22.90397824155377,120.27427354010585,20.038085277482867
22.90399572290629,120.2742728819645,20.0382636751011
22.90401322483576,120.27427220225198,20.038442478999496
22.90403074446141,120.2742715003813,20.03862140478194
22.904048283017847,120.27427077723291,20.038800655588506
22.904065838447384,120.27427003236659,20.03898006890714
22.904083411161558,120.27426926622256,20.039159725993873
22.904100999514213,120.27426847836061,20.039339667476714
22.904118605151506,120.27426766951444,20.039520015239717
22.904136226427276,120.27426683953732,20.03970044425875
22.904153861695374,120.27426598813574,20.03988111704588
22.904171512190416,120.27426511619018,20.04006219611317
22.90418917626624,120.27426422340714,20.04024335643649
22.904206853922854,120.27426330949315,20.040425004296004
22.90422454516025,120.27426237532865,20.040606814667584
22.904242247097663,120.27426142032668,20.040788828179238
22.904259961792782,120.27426044492746,20.040971166715025
22.904277688010993,120.27425944898425,20.041153789646923
22.904295422871524,120.27425843323078,20.041336534462868
22.904313169255143,120.27425739693331,20.041519685558974
22.90433092633878,120.27425634038534,20.04170303979516
22.90434869165319,120.27425526446733,20.041886800311506
22.904366465198386,120.2742541685923,20.042070723339915
22.904384246974356,120.27425305246675,20.042254646368324
22.90440203698111,120.27425191711791,20.042439178816974
22.904419832749408,120.27425076181206,20.042623833149673
22.904437635102326,120.27424958786986,20.042808731250464
22.904455444039872,120.27424839382391,20.042994035631416
22.904473257915885,120.27424718040791,20.043179624408484
22.904491077141905,120.27424594776862,20.043365253813565
22.904508899660236,120.27424469663973,20.04355116761476
22.904526727117034,120.2742434261408,20.04373760958016
22.90454455621999,120.27424213685879,20.043924092173576
22.904562389849872,120.27424082850021,20.044110940419138
22.90458022512591,120.27423950209229,20.04429815431684
22.904598061225027,120.2742381566078,20.044485490098594
22.9046158989703,120.2742367926337,20.044673069648443
22.90463373795019,120.27423541017004,20.044860852338374
22.904651575283925,120.27423400951025,20.045049244448542
22.904669413852275,120.27423259124134,20.045237595930693
22.90468725036293,120.27423115404262,20.045426313064993
22.90470508522743,120.27422969923477,20.045615273967385
22.904722918857313,120.27422822667103,20.045804559893906
22.904740748371808,120.27422673620468,20.045994170844555
22.904758575417066,120.27422522754222,20.046183944307266
22.904776398758475,120.27422370141737,20.046374083422123
22.904794218807574,120.27422215827036,20.046564547561108
22.904812032683584,120.27422059751422,20.046755011700093
22.904829842444208,120.27421901929569,20.046945922747256
22.904847645620205,120.27421742390825,20.047137118190527
22.90486544221158,120.27421581135191,20.047328638657927
22.90488323262987,120.27421418177342,20.047520402893422
22.904901014817383,120.27421253561297,20.047712370269
22.904918790008733,120.27421087228363,20.047904581412674
22.904936555734686,120.27420919237235,20.048097280092538
22.9049543115837,120.27420749499869,20.04829001940042
22.904972060848095,120.27420578192356,20.048483164988458
22.90498979694324,120.27420405182625,20.048676635600625
22.90500752357299,120.27420230588073,20.048870187468825
22.905025238679652,120.274200544087,20.049064186245204
22.90504294226322,120.2741987649776,20.049258428789674
22.905060633500618,120.2741969707537,20.049452996358276
22.90507831156877,120.27419516009462,20.049647848322987
22.90509597729075,120.27419333373406,20.04984278154373
22.905113628197327,120.27419149137853,20.050038202300666
22.9051312663462,120.2741896339085,20.050233907453716
22.90514888885659,120.27418776029677,20.050429815746842
22.90516649449388,120.2741858711303,20.050626008436083
22.90518408531577,120.27418396670258,20.050822485521437
22.90520165926456,120.27418204701361,20.051019287630915
22.905219215517175,120.27418011221015,20.05121625225246
22.90523675489669,120.27417816199868,20.051413663782178
22.905254276168495,120.27417619755316,20.051611197195946
22.905271778509505,120.27417421725943,20.05180917751789
22.90528926233126,120.27417222317189,20.052007360979914
22.905306725164525,120.27417021367634,20.05220574758202
22.905324168243926,120.27416818950651,20.05240454046428
22.90534159115791,120.27416615110265,20.052603658370675
22.90535899061418,120.27416409758428,20.05280302004516
22.905376370316574,120.27416203027208,20.053002544231713
22.905393727384325,120.27415994887257,20.053202434070407
22.905411060994354,120.27415785309228,20.05340277081728
22.9054283715582,120.27415574322468,20.053603066936134
22.905445657841252,120.27415361926977,20.053803728707134
22.90546291943196,120.27415148166779,20.054004959270358
22.90548015591879,120.27414932997848,20.054206230461595
22.90549736730175,120.2741471652291,20.05440794856101
22.90551455152313,120.27414498639239,20.054609626032413
22.90553170981756,120.27414279434883,20.05481195355207
22.905548841361952,120.27414058851146,20.05501452483982
22.90556594409862,120.27413836946724,20.055217258639633
22.905583018850635,120.27413613750964,20.055420317463575
22.905600065618,120.27413389219846,20.055623620055616
22.905617081108403,120.27413163368043,20.055827328927816
22.905634068614155,120.27412936239578,20.056031240940094
22.905651025254485,120.27412707849125,20.056235518604517
22.905667949794775,120.27412478167335,20.056440080665052
22.905684844292722,120.27412247252907,20.05664480523765
22.90570170586755,120.27412015032468,20.056849895462392
22.905718536165416,120.27411781608737,20.057055310711263
22.90573533107093,120.27411546937694,20.057261010356246
22.905752093053323,120.27411311004661,20.057467075653374
22.90576882293568,120.27411073868339,20.057673303462565
22.905785516602606,120.27410835528725,20.057879937551917
22.90580217487718,120.2741059601517,20.058086856037377
22.905818796936327,120.27410355327673,20.058293815150858
22.905835384426197,120.27410113392862,20.058501383684575
22.905851933231403,120.27409870284109,20.058709236614405
22.90586844582118,120.2740962606011,20.058917089544234
22.90588492219553,120.27409380706193,20.059125389382242
22.905901356592903,120.27409134163659,20.059334217384457
22.90591775312869,120.27408886461856,20.059543004758655
22.905934110979814,120.27408637732854,20.05975232029706
22.905950429323195,120.27408387800563,20.059961757719517
22.905966706512682,120.27408136782374,20.06017147953808
22.905982942548267,120.27407884678288,20.06038168889284
22.9059991357838,120.27407631502982,20.06059210138768
22.90601528868852,120.27407377227102,20.060802757650613
22.90603139879318,120.27407121894676,20.06101377956569
22.90604746609779,120.27406865447004,20.061225126504898
22.906063487310032,120.27406607972134,20.061436635956166
22.906079464899143,120.27406349470064,20.061648714199663
22.90609540051128,120.27406089940794,20.061860711187123
22.90611128673874,120.27405829413674,20.062073358222843
22.906127130989223,120.27405567874028,20.062286127142606
22.906142925855033,120.27405305292508,20.062499139830468
22.906158675451554,120.27405041742487,20.06271247754246
22.906174378955708,120.27404777209289,20.062926262162627
22.906190029782874,120.27404511619542,20.06314004678279
22.906205636163833,120.27404245134666,20.06335452207923
22.906221192337036,120.27403977754658,20.063569078631698
22.906236700771718,120.27403709288753,20.063783960208298
22.906252155706333,120.27403439957065,20.06399920743704
22.90626756290243,120.27403169671551,20.064214698433876
22.906282917421535,120.27402898476231,20.06443051445484
22.90629821926365,120.27402626415127,20.06464649298787
22.906313470898013,120.27402353356175,20.064862999685108
22.906328669855387,120.27402079490136,20.065079709522426
22.906343814489617,120.27401804655595,20.065296622499822
22.90635890562378,120.27401528999295,20.065514023013414
22.9063739424348,120.27401252462538,20.065731667295097
22.906388924922673,120.27400975089347,20.0659493522048
22.906403851441247,120.27400696850373,20.066167605906724
22.90641872199052,120.27400417745618,20.066386428400875
22.90643353739357,120.27400137833776,20.06660508838296
22.906448293535007,120.273998571442,20.066824235901237
22.906462994530223,120.27399575574165,20.06704370844364
22.90647763544075,120.2739929321172,20.067263465382158
22.90649221873582,120.27399010056862,20.06748358797282
22.906506742769277,120.27398726168293,20.067703832447528
22.90652120918728,120.27398441472637,20.06792436131835
22.9065356114052,120.27398155955223,20.06814537772536
22.906549956007662,120.27397869718769,20.068366678528488
22.906564238056205,120.27397582777948,20.068588263727722
22.906578459196975,120.27397295030043,20.068810214579106
22.906592618606904,120.27397006592447,20.069032368570564
22.90660671381675,120.27396717391788,20.06925488821417
22.90662074729575,120.27396427560136,20.069477732881904
22.906634716574672,120.27396136950748,20.0697007400617
22.906648620007356,120.27395845636993,20.069924234777687
22.90666245923996,120.27395553648222,20.070147932633756
22.906676234272485,120.27395261057805,20.070372158654035
22.906689943458776,120.27394967704326,20.07059638467431
22.906703584329595,120.27394673705179,20.070821098230777
22.90671715935418,120.2739437911906,20.071046055555342
22.906730666063293,120.27394083872599,20.071271216019987
22.906744106926173,120.27393787965796,20.071496945276856
22.90675747618127,120.27393491457347,20.071722755789757
22.906770779590133,120.27393194303231,20.07194905383885
22.906784011391213,120.27392896576816,20.07217555502802
22.906797173230665,120.27392598234084,20.072402543753384
22.906810265931572,120.27392299289706,20.072629573106767
22.906823285378543,120.27391999831727,20.07285696811229
22.90683623404081,120.27391699713405,20.07308493191004
22.906849109449137,120.27391399110833,20.07331285507977
22.906861914895842,120.2739109792129,20.073541387669742
22.906874644619375,120.27390796218148,20.07377004214376
22.90688730026589,120.27390493957382,20.07399922478199
22.906899884304625,120.27390191168342,20.07422856993228
22.906912391797114,120.27389887865704,20.074458158850668
22.90692482192027,120.27389584064139,20.074687991537154
22.906937178789494,120.27389279778323,20.07491839301586
22.90694945828939,120.27388974993582,20.075148916378616
22.906961661243034,120.27388669739264,20.07537996790558
22.906973786827354,120.27388363956672,20.075611303828655
22.906985835042345,120.27388057763201,20.07584276163578
22.906997803418776,120.27387751129501,20.076074585095046
22.907009693602802,120.27387444040899,20.07630673357844
22.907021504771347,120.27387136482719,20.076539288341998
22.907033233632095,120.27386828543008,20.076772168129683
22.907044884300436,120.27386520163068,20.077005291685463
22.907056452660985,120.2738621137225,20.07723874026537
22.90706793953682,120.273859021999,20.077472432613373
22.907079344104854,120.27385592587322,20.077706653125585
22.907090667188175,120.27385282651909,20.077940954893826
22.907101905494468,120.27384972320291,20.078175906710324
22.907113060669886,120.27384661651165,20.078410899154843
22.907124131891354,120.2738435057116,20.0786462572515
22.907135118335795,120.27384039182994,20.07888202162832
22.90714601918013,120.27383727413296,20.079117989145217
