Latitude,Longitude,Altitude (m)
22.903712855960904,120.2731247953154,10.790512466073036
22.90371735358458,120.27312486609264,10.733516885519027
22.903721791474986,120.27312494216905,10.676515180885792
22.903726169118666,120.27312502330098,10.619503677725792
22.903730486344465,120.27312510967114,10.562486050486564
22.903734741783133,120.27312520097502,10.505461074352263
22.903738934750052,120.27312529751714,10.448427524507045
22.90374306524522,120.27312539893204,10.391386625766753
22.903747131899394,120.27312550528065,10.334338378131388
22.903751135226045,120.27312561656294,10.277281556785105
22.903755073855923,120.27312573277894,10.220216774135828
22.903758947104407,120.27312585380682,10.163145254999398
22.90376275411572,120.27312597952475,10.106065774559974
22.90376649506102,120.27312611005458,10.048978945225477
22.903770168742216,120.27312624521353,9.991884154587984
22.903773774988153,120.27312638506255,9.934782015055417
22.90377731242959,120.2731265294189,9.877672526627778
22.9037807803819,120.2731266783435,9.820554464489222
22.90378417987202,120.27312683183632,9.76342905345559
22.903787508332613,120.27312698983648,9.706297518342733
22.90379076593484,120.27312715222216,9.649158634334801
22.903793952165234,120.27312731905424,9.592012401431798
22.903797066168014,120.27312749015002,9.534857594817876
22.90380010725856,120.2731276655704,9.477695439308881
22.903803075436873,120.27312784513263,9.420527159720658
22.90380596933371,120.2731280291413,9.363349694013595
22.9038087884356,120.27312821710912,9.306167329043149
22.903811532913704,120.27312840921878,9.248975777953863
22.903814200885304,120.27312860547033,9.191778102785348
22.90381679269272,120.27312880574193,9.134571853905916
22.90381930713786,120.27312900991176,9.07735825613141
22.903821744049566,120.27312921810163,9.020138534277677
22.903824102572063,120.27312943025065,8.962910851120949
22.90382638202073,120.27312964617609,8.905677656292914
22.903828582053254,120.27312986593883,8.84843527534604
22.9038307016427,120.2731300895389,8.79118493309617
22.903832740446767,120.27313031673265,8.73393030399084
22.90383469743851,120.27313054776373,8.676665876358747
22.9038365731314,120.27313078238848,8.619395324647426
22.903838365471575,120.27313102066782,8.562118648856877
22.90384007480134,120.27313126241903,8.504834011763334
22.903841699751457,120.27313150770301,8.447544475406408
22.903843240493078,120.27313175633702,8.39024575293064
22.903844695828113,120.27313200868655,8.3329396815598
22.903846065071942,120.27313226420338,8.275628710925579
22.903847348224566,120.27313252325298,8.218311003804207
22.903848544430208,120.27313278528717,8.160985335379838
22.90384965231962,120.27313305103687,8.103654155284167
22.903850672406275,120.27313331971023,8.046316238701342
22.903851603149768,120.2731335915509,7.988973422855138
22.903852444207793,120.2731338666807,7.93162080848217
22.903853195580343,120.2731341447951,7.874263294845819
22.90385385555587,120.27313442601589,7.816900881946086
22.90385442447668,120.27313471016035,7.759532344967126
22.903854901658157,120.27313499728939,7.702157683908939
22.903855285217585,120.27313528746393,7.644775061547755
22.90385557566843,120.27313558025759,7.587390601962804
22.90385577215492,120.27313587615765,7.529998181074857
22.903855874163586,120.27313617461594,7.472602085739374
22.903855880325185,120.27313647599789,7.415198029100894
22.903855790982025,120.27313678012078,7.357790298014879
22.90385560527833,120.27313708674099,7.300378892481326
22.903855322187166,120.27313739610213,7.242961362868547
22.903854941023916,120.2731377080824,7.18553770917654
22.903854462130887,120.27313802243815,7.128112218260765
22.90385388362537,120.27313833947393,7.070681828081607
22.90385320584967,120.27313865876339,7.013249600678682
22.903852427092243,120.27313898061104,6.955810024380684
22.903851547695393,120.27313930483419,6.898369835674762
22.90385056663219,120.2731396313719,6.84092719733715
22.90384948356032,120.27313996004148,6.783480884552001
22.903848297110542,120.27314029114744,6.726030284911394
22.903847007625163,120.27314062444616,6.66857846045494
22.903845613734944,120.2731409597549,6.611126635998487
22.903844114755262,120.2731412973782,6.55367174950242
22.90384251085727,120.27314163682883,6.496216863006353
22.90384080050057,120.27314197847218,6.438757689654826
22.9038389831717,120.27314232206466,6.381301578342915
22.90383705852834,120.27314266748444,6.323843629807233
22.903835026057028,120.27314301503606,6.266386293679475
22.90383288455968,120.27314336429316,6.20892956995964
22.903830633522823,120.27314371549937,6.151475295871496
22.90382827328877,120.27314406828924,6.094022246599197
22.903825801803656,120.2731444229064,6.036571034550667
22.90382321906748,120.27314477910723,5.979121659725904
22.903820524053312,120.27314513701351,5.921675346940756
22.903817717274617,120.27314549650347,5.8642357706427575
22.903814796677526,120.27314585751617,5.806798031568527
22.903811761919734,120.27314622011252,5.749364579349756
22.90380861283008,120.27314658417072,5.691939088433981
22.90380534838163,120.27314694956893,5.634517884373665
22.90380196823208,120.27314731642896,5.577105254024267
22.903798471696806,120.27314768450721,5.519699972569942
22.903794857235408,120.27314805392547,5.462300815194845
22.903791125190192,120.27314842468374,5.4049120687544345
22.903787274363076,120.2731487965384,5.347532508432865
22.90378330424059,120.27314916955032,5.290162746638059
22.90377921499389,120.27314954359774,5.2328052330017085
22.903775004569113,120.27314991886334,5.1754593551158905
22.903770673308568,120.2731502951035,5.118127256408333
22.903766220014166,120.27315067213549,5.060808630675077
22.90376164383013,120.27315105026386,5.003503477916121
22.903756944585304,120.27315142918405,4.94621516637504
22.903752121252758,120.27315180895698,4.88894247123599
22.903747173661333,120.27315218952175,4.831687229722738
22.90374210061294,120.27315257087834,4.774451585263013
22.90373690227874,120.27315295290494,4.717234925448894
22.90373157626255,120.27315333541881,4.660038168892264
22.90372612359131,120.2731537186027,4.602864683836699
22.903720543066925,120.27315410245659,4.545712633058429
22.903714833833618,120.27315448661503,4.48858538480103
22.903708995377926,120.27315487138257,4.4314829390645025
22.903703026330604,120.27315525645466,4.374407439276576
22.903696927033963,120.27315564189222,4.31735888543725
22.90369069646107,120.27315602769522,4.260339420974255
22.903684333927302,120.27315641349823,4.203350270703434
22.903677838576883,120.27315679978851,4.146393271848559
22.90367120972519,120.2731571860788,4.089468118205667
22.903664447029914,120.27315757236909,4.03257787181437
22.903657549464118,120.27315795890301,3.975724369898438
22.903650516685495,120.27315834537603,3.9189057752341028
22.903643348009425,120.27315873178814,3.8621288243085146
22.90363604240897,120.2731591178957,3.8053910674899813
22.90362859902835,120.27315950406417,3.748694035798311
22.903621017525264,120.2731598900499,3.692040791273117
22.903613297557396,120.27316027554836,3.6354340897500514
22.90360543809781,120.27316066074228,3.5788736250251527
22.90359743829073,120.27316104569255,3.5223615405261515
22.90358929779385,120.27316143003371,3.465899673476815
22.903581015922544,120.27316181394852,3.4094904735088347
22.90357259164988,120.27316219725422,3.3531333282142874
22.903564024633546,120.27316258001174,3.2968328306525945
22.90355531384661,120.27316296203833,3.240590511843562
22.90354645894676,120.27316334345583,3.1844066779911517
22.903537459249375,120.27316372389878,3.1282846973389384
22.903528313385213,120.27316410354989,3.0722270195186137
22.903519022210045,120.27316448228736,3.0162330321222544
22.90350958384117,120.27316486011117,2.9603070220053196
22.903499997765113,120.2731652367777,2.9044508263915776
22.903490263468417,120.27316561222604,2.8486662825047966
22.903480380437603,120.27316598682162,2.7929558399766683
22.903470347988062,120.2731663600163,2.737320723623037
22.903460165092852,120.27316673199277,2.681763076871633
22.903449831409667,120.27316710256831,2.6262868803739545
22.903439346082724,120.27316747168203,2.570892134130001
22.90342870911203,120.27316783921208,2.515582359485328
22.903417918443715,120.27316820540211,2.4603596998676656
22.903406974762405,120.27316856976485,2.4052272173166274
22.903395876870004,120.27316893254394,2.3501858304440972
22.903384624595365,120.27316929349573,2.2952390605956317
22.903373216398084,120.2731696524984,2.240388591893017
22.90336165227816,120.27317000979559,2.1856368739679453
22.903349931893285,120.27317036490004,2.130988499879837
22.903338053874215,120.27317071799446,2.076442244812846
22.903326018220948,120.27317106889612,2.0220025487244127
22.90331382390655,120.27317141772684,1.9676727798581122
22.903301470246404,120.27317176412117,1.9134543161317705
22.90328895724051,120.27317210807912,1.8593496071770785
22.903276283861928,120.27317244984431,1.8053609495237468
22.903263449597194,120.27317278880763,1.7514921707212925
22.903250453761693,120.27317312533457,1.6977454141974448
22.903237295670795,120.27317345899874,1.6441223640739917
22.903223974982193,120.27317378998289,1.590625929288566
22.90321049084011,120.27317411804336,1.5372596311867237
22.90319684307339,120.27317444318015,1.4840245414823292
22.903183030997408,120.27317476527145,1.4309261718466877
22.903169053927545,120.27317508431726,1.3779636036679148
22.903154911350335,120.27317539995212,1.325142501719296
22.90314060275231,120.27317571229784,1.2724625597968697
22.903126127534428,120.27317602123262,1.2199285240620374
22.903111484926484,120.27317632675644,1.1675431503504514
22.903096675185218,120.27317662862568,1.1153073572739958
22.903081697198115,120.2731769268403,1.0632226758524774
22.903066550622867,120.27317722127854,1.0112959956750274
22.903051234946005,120.27317751163581,0.9595262450277805
22.903035749654062,120.2731777983385,0.9079177107661962
22.90302009406242,120.27317808071656,0.8564714646041393
22.90300426825665,120.27317835895278,0.8051899561733007
22.902988271466565,120.27317863280348,0.7540779316350817
22.90297210326426,120.2731789025123,0.703135084785521
22.902955763307435,120.27317916728744,0.6523653962761163
22.902939250825888,120.27317942779888,0.6017688278313725
22.902922565990774,120.2731796833157,0.5513511973265558
22.902905707946317,120.27317993420338,0.5011113182213157
22.90288867609347,120.27318018009646,0.451054702186957
22.902871471031276,120.27318042099493,0.4011815788764506
22.902854091732806,120.27318065653334,0.35149386206455524
22.902836537684593,120.27318088683349,0.3019920110572129
22.90281880905779,120.27318111177358,0.2526818437296897
22.902802724807252,120.27317682560813,2.633627814143896
22.902783306191253,120.27317909011465,4.884993971154094
22.902757142081104,120.27318324209568,6.590977190524339
22.902722069927325,120.27318511513457,9.22257364758849
22.902681019740566,120.27319035173736,11.7085033685565
22.90264010793301,120.27319554009954,13.883209220409393
22.902603536114928,120.27320044693637,15.407376182615756
22.902571407920963,120.27320242760298,17.06744993585348
22.902542227109922,120.2732041630465,18.892993860185147
22.902517160363125,120.27321003932457,19.110409696102142
22.90249808303115,120.27320858960915,19.646479746460912
22.90248977330429,120.27320575437732,20.561292251825332
22.90249750683623,120.27320426366958,20.283413381695745
22.90251593463316,120.27319323874256,20.18329570966959
22.90253921716967,120.27317620554584,20.334659676671027
22.902564335263115,120.27315297684251,20.45108699649572
22.902590244266026,120.27312448144693,20.5180709502697
22.902618103414458,120.2730925405637,20.584992438435552
22.90264779452556,120.27305980590326,20.452066849172112
22.902672388712084,120.27302964593277,20.35155478644371
22.902683492081458,120.27300784251999,20.287335242033002
22.9026760107899,120.27299643398271,20.02210382032394
22.90265504313124,120.27298586085453,19.810707954287526
22.902627934242847,120.27296902929987,19.6546566170454
22.90259972396895,120.27294220563611,19.94709487313032
22.902571921558557,120.27291555358586,20.135662621438502
22.90254560768736,120.27289380660608,20.225321590960025
22.902522414408434,120.27288001886903,20.151715057909488
22.90250586735348,120.27287129785721,20.132405836105345
22.902499628137235,120.27286689215617,20.149699011027813
22.90250658766131,120.27286594765755,20.09724137318134
22.902525649246982,120.27286361919569,20.051298530817032
22.902553799445307,120.27285587992887,20.01683098810911
22.90258808967528,120.27283989124474,20.289952673494813
22.902625916148597,120.27282076809392,20.49491580671072
22.902664792746357,120.27279975472763,20.632243384122848
22.902702312936945,120.27277963169587,20.466264914453028
22.90273500440359,120.27276302456357,20.364447198033332
22.90276022133932,120.2727560497763,20.3247558157444
22.902776271273186,120.27276189389397,20.061301601827143
22.90278434459154,120.27277698520845,19.831911966204643
22.902787471430983,120.27280100079093,19.64463639861345
22.902788218952537,120.27283222482612,19.936187888026236
22.902789818828374,120.27287195145038,20.14316339367628
22.902793524601226,120.27291565006708,20.254735543489456
22.902800092521566,120.27296191761772,20.283955975115298
22.902808782855423,120.27300904238318,20.33806956398487
22.902818247838976,120.27305591324593,20.405227441608904
22.90282777606448,120.27310089809598,20.248274639904498
22.90283697318971,120.27313803498558,20.13577163004875
22.9028450609707,120.27316380271613,20.079950647890566
22.902851372328982,120.27317811165877,19.420847845852375
22.902853794264583,120.27318323637016,18.848153352081773
22.902854097209783,120.27318866922448,18.38595561981201
22.90285399896654,120.27319546487587,18.61702447795868
22.902855068773857,120.2732058759534,18.709109807670114
22.902856629198357,120.27321503338432,18.658660867810248
22.902857876493908,120.27322293046856,18.628161728441714
22.902859106588334,120.27323056655409,18.62359561496973
22.902860433385605,120.27323808203812,18.616696227312087
22.90286174272502,120.27324529547018,18.60511436867714
22.9028629660588,120.27325215026502,18.593670914232728
22.902864112201467,120.2732586750503,18.583011341929435
22.902865190823295,120.27326489077896,18.572356668889523
22.902866208856082,120.27327080171473,18.56153909534216
22.902867172632583,120.27327641120763,18.55070682400465
22.902868087886507,120.27328172467865,18.539891700088976
22.902868956671714,120.27328674779241,18.529079025804997
22.902869774024705,120.27329148475167,18.518299421548843
22.902870537891605,120.27329594018559,18.507565135478973
22.90287124647529,120.27330011847968,18.496851671278474
22.90287188437176,120.27330402219215,18.486239866793156
22.90287244524826,120.27330765534306,18.475733396470545
22.90287292465476,120.27331102140427,18.465371454417703
22.90287333371635,120.2733141262231,18.455047481656074
22.902873675085953,120.27331697406328,18.444763927817345
22.902873950731852,120.27331956894483,18.434512219190598
22.90287416245118,120.27332191580146,18.42430092948675
22.902874312468956,120.27332401853141,18.414121484994887
22.902874402325583,120.2733258817029,18.403973885715008
22.90287443458839,120.27332750939689,18.393861806094645
22.902874410968934,120.27332890630346,18.383776672422886
22.902874333606658,120.273330076199,18.373723383963107
22.902874203785228,120.27333102401722,18.363698266267775
22.90287402432871,120.27333175383909,18.353702544152735
22.902873797205388,120.27333226986737,18.343733767986297
22.902873523527777,120.27333257636575,18.333791937768456
22.902873206119942,120.2733326780852,18.323875828683374
22.90287284626555,120.27333257892396,18.313986665546892
22.90287244644635,120.27333228338935,18.30411954909563
22.90287200845948,120.27333179562325,18.294276928961274
22.902871533503028,120.27333112019389,18.28445635551214
22.9028710242299,120.27333026112132,18.274662728011606
22.90287048286512,120.27332922297379,18.264887472748754
22.902869910521197,120.27332800995407,18.255131814539432
22.90286930967989,120.27332662620402,18.24539697819948
22.90286868205275,120.27332507629191,18.23568908780813
22.902868028923443,120.2733233644814,18.22599712002277
22.902867353201614,120.27332149515802,18.216325974106788
22.902866656170925,120.27331947240272,18.206675650060177
22.902865939885245,120.27331730054009,18.197043698251246
22.902865206227286,120.27331498413838,18.187431343495845
22.902864456737447,120.27331252727855,18.17783858579397
22.90286369372632,120.2733099342243,18.16826420032978
22.90286291890547,120.27330720930021,18.158711861550806
22.90286213407202,120.27330435713543,18.149172995746135
22.902861340851956,120.27330138199366,18.139652502179146
22.902860541213556,120.27329828777314,18.13015160566568
22.90285973746743,120.27329507904209,18.120671531021593
22.902858930811657,120.2732917600642,18.11120860379934
22.902858123128954,120.2732883353468,18.101766498446462
22.90285731647318,120.2732848090927,18.09234154051542
22.902856512384744,120.27328118550464,18.08293495482206
22.90285571266077,120.27327746902905,18.073547966182232
22.902854919269547,120.27327366392963,18.064181799411774
22.90285413400821,120.27326977453097,18.05483033043146
22.902853358160424,120.2732658053404,18.045502132952212
22.90285259412237,120.2732617604389,18.036191082894803
22.90285184326328,120.27325764439468,18.026902079522607
22.902851107294723,120.27325346141052,18.017630223572255
22.902850388013825,120.2732492155065,18.008382863938806
22.90284968747445,120.27324491161629,17.999150202095507
22.902849006361222,120.27324055375995,17.989943261384962
22.902848347498207,120.27323614620117,17.980755917727947
22.902847712083492,120.27323169332547,17.971588171124456
22.902847101914208,120.27322719970107,17.96244369602203
22.902846518445184,120.27322266940894,17.95332004278898
22.902845963644697,120.27321810677367,17.944218436241147
22.902845438796422,120.27321351636351,17.93514010119438
22.9028449460398,120.27320890232033,17.926082588016985
22.902844486316184,120.27320426890783,17.9170495711565
22.902844061850594,120.27319962075514,17.90803982579708
22.90284367409786,120.27319496212594,17.89905212712288
22.902843324512794,120.2731902970403,17.89008769994974
22.902843014806955,120.27318563037102,17.881147769093513
22.90284274686305,120.2731809660163,17.872229884922504
22.902842521964754,120.27317630848349,17.863336497068403
22.902842341566878,120.27317166215809,17.854467605531216
22.902842207552137,120.2731670314256,17.8456195358634
22.90284212111862,120.27316242042792,17.836800861775874
22.90284208457693,120.27315783379417,17.82800423437357
22.902841498968456,120.27314974502661,18.94869481039047
22.9028420931347,120.27314301661971,19.869287221729753
22.902843651933225,120.27312998842855,20.546244164347648
22.902845727621294,120.27311223113549,20.269755460202692
22.902846178188092,120.27308757823798,20.216306946337223
22.90284509220658,120.27306421224384,20.351366164803505
22.902843348645714,120.27304404825021,20.276114704072473
22.902841234875552,120.2730238123525,20.20406368714571
22.902839234495893,120.27300319205271,20.1759615123868
22.902837906414955,120.27298236003028,20.16275554794073
22.902837049781787,120.27296209940317,20.140772553145883
22.902836320830602,120.27294298994184,20.116287259578705
22.902835478403336,120.2729250260121,20.14360065293312
22.902834842047266,120.27290757734926,20.164940619409084
22.90283456246479,120.27288945995716,20.177569695591924
22.902834693997775,120.2728703454403,20.152348287701606
22.902834694853553,120.2728501383834,20.13470114099979
22.902833955119576,120.27282910453617,20.124254686653614
22.902832145749432,120.27280726288724,20.13410465568304
22.902830239162974,120.27278556232075,20.138229835450648
22.902829937159133,120.27276476853447,20.137562310814857
22.90283184477252,120.2727459526434,20.14576735216379
22.902832579885303,120.27273204317802,20.15217558866739
22.90282725147294,120.27272578486576,20.15880674165487
22.902812713440994,120.27272807286062,20.112854100763798
22.902792044790957,120.272733720209,20.081976493299006
22.902770407999952,120.27273850423636,20.060336446940898
