Latitude,Longitude,Altitude (m)
-38.1903409131464,130.87391729402918,11968.00495147705
-38.178892720025374,130.87031181302802,11968.322519302368
-38.167418217859094,130.866566989766,11968.639360427856
-38.15596626630303,130.86294409098224,11968.957654953003
-38.14451055631193,130.8593386099811,11969.27594947815
-38.13305484632083,130.8556460400669,11969.596424102783
-38.12160289476477,130.8519534701527,11969.912538528442
-38.11014718477367,130.84833057136893,11970.228652954102
-38.09869523321761,130.84475992593303,11970.55276107788
-38.087247040096585,130.84110219158407,11970.868148803711
-38.07578757167045,130.8374967105829,11971.187896728516
-38.06433937854943,130.83383897623395,11971.504011154175
-38.052879910123295,130.83016382410236,11971.824485778809
-38.041435475437304,130.826523507536,11972.140600204468
-38.02997976544621,130.8228483554044,11972.461074829102
-38.01853908919525,130.81934738109894,11972.779369354248
-38.007083379204154,130.81567222896737,11973.096937179565
-37.99563142764809,130.8120667479662,11973.41668510437
-37.984190751397136,130.80837417805202,11973.734979629517
-37.97275007514619,130.8047686970509,11974.054000854492
-37.96130939889524,130.80112838048453,11974.374475479126
-37.94985744733918,130.79750548170077,11974.689863204956
-37.938413012653186,130.79391741848224,11975.011064529419
-37.926968577967195,130.7901900130028,11975.328632354736
-37.915535418586316,130.78667162091475,11975.648380279541
-37.90408722546529,130.78303130434838,11975.968854904175
-37.89263903234426,130.77942582334725,11976.284242630005
-37.881198356093314,130.77576808899826,11976.606897354126
-37.86975767984236,130.77214519021453,11976.92737197876
-37.85832452046148,130.76852229143077,11977.244213104248
-37.846880085775496,130.76493422821227,11977.563961029053
-37.83544692639461,130.76138100055897,11977.885162353516
-37.824002491708626,130.75770584842738,11978.202730178833
-37.81257309076278,130.75413520299148,11978.524658203125
-37.80113241451183,130.75052972199032,11978.84440612793
-37.78970301356598,130.74694165877182,11979.162700653076
-37.778262337315034,130.74330134220546,11979.481721878052
-37.76684045323926,130.7396784434217,11979.804376602173
-37.755392260118235,130.7361252157684,11980.124851226807
-37.743966617607434,130.7325371525499,11980.441692352295
-37.73252969979151,130.72894908933137,11980.762893676758
-37.72110781571575,130.7253261905476,11981.078281402588
-37.70968217320494,130.72172070954647,11981.400936126709
-37.698252772259096,130.7180803929801,11981.722137451172
-37.68681585444318,130.71456200089204,11982.041885375977
-37.67539397036741,130.71097393767354,11982.358726501465
-37.6639683278566,130.70742071002024,11982.679927825928
-37.65255020221587,130.7038152290191,11983.000402450562
-37.64111328439996,130.7001226591049,11983.323057174683
-37.629691400324184,130.69662168479945,11983.639171600342
-37.61826199937834,130.69301620379832,11983.962553024292
-37.606847632172645,130.68941072279716,11984.282300949097
-37.59542198966184,130.68590974849172,11984.604955673218
-37.58400762245614,130.68228684970796,11984.923976898193
-37.57257070464022,130.67866395092423,11985.243724822998
-37.561156337434525,130.6751803944014,11985.56637954712
-37.54973445335876,130.67157491340026,11985.887580871582
-37.53831632771802,130.66789976126867,11986.2051486969
-37.52690571894736,130.6643987869632,11986.527076721191
-37.51548759330663,130.66086297709253,11986.846824645996
-37.50407322610093,130.65732716722187,11987.16729927063
-37.4926551004602,130.65366943287287,11987.489227294922
-37.48124825012457,130.6501336230022,11987.811155319214
-37.4698263660488,130.6465803953489,11988.13017654419
-37.458411998843104,130.64307942104347,11988.450651168823
-37.447001390072444,130.63949135782494,11988.772579193115
-37.43558702286675,130.63593813017164,11989.094507217407
-37.424187689401194,130.63235006695314,11989.414981842041
-37.4127733221955,130.62881425708244,11989.736183166504
-37.40136271342484,130.62524361164654,11990.05520439148
-37.38994834621914,130.62167296621064,11990.3778591156
-37.37854149588352,130.61811973855734,11990.702693939209
-37.367153437723076,130.61454909312144,11991.024621963501
-37.35573907051738,130.61101328325077,11991.342189788818
-37.34433597861679,130.60742522003224,11991.665571212769
-37.332929128281165,130.60387199237894,11991.986772537231
-37.321526036380575,130.6003884358561,11992.308700561523
-37.310122944479986,130.5968177904202,11992.629175186157
-37.2987198525794,130.59328198054953,11992.952556610107
-37.28732427754888,130.5898158418093,11993.272304534912
-37.27591742721326,130.58622777859077,11993.595685958862
-37.264529369052816,130.5826745509375,11993.916887283325
-37.25313003558727,130.5791213232842,11994.238815307617
-37.241734460556756,130.57570743789182,11994.56001663208
-37.23033888552624,130.57208453910806,11994.885578155518
-37.21894706893076,130.56851389367216,11995.205326080322
-37.20755149390025,130.56501291936672,11995.527254104614
-37.19615967730476,130.56147710949602,11995.849908828735
-37.18476410227425,130.55804580632105,11996.171836853027
-37.17336852724374,130.55444032531992,11996.49303817749
-37.16198422751833,130.55095676879708,11996.817873001099
-37.15058865248781,130.54742095892638,11997.14052772522
-37.13920059432737,130.54391998462094,11997.461002349854
-37.12780877773189,130.54036675696764,11997.783657073975
-37.11641320270138,130.5368657826622,11998.107765197754
-37.105036419846044,130.53339964392197,11998.427513122559
-37.09364084481553,130.52979416292084,11998.751621246338
-37.0822640619602,130.5263976953111,11999.075729370117
-37.07088352066983,130.52280963209256,11999.399110794067
-37.059499220944424,130.51937832891755,11999.719585418701
-37.048122438089095,130.51579026569905,12000.040786743164
-37.03673437992865,130.51230670917622,12000.366348266602
-37.02535759707332,130.50868381039245,12000.689002990723
-37.01398457265302,130.50537443169577,12001.010931015015
-37.002607789797686,130.501751532912,12001.337219238281
-36.99122349007228,130.49826797638917,12001.658420562744
-36.97983919034688,130.49476700208373,12001.979621887207
-36.96846240749154,130.4912834455609,12002.302276611328
-36.95709689994132,130.48779988903806,12002.626384735107
-36.945723875521026,130.48429891473262,12002.949766159058
-36.934343334230654,130.48079794042715,12003.27169418335
-36.92297782668043,130.47733180168694,12003.597255706787
-36.91160856069517,130.4738482451641,12003.922090530396
-36.90023553627488,130.47038210642387,12004.243291854858
-36.88886627028962,130.46681146098797,12004.566673278809
-36.87749324586932,130.463380157813,12004.88932800293
-36.86613525518917,130.45993143685538,12005.215616226196
-36.85476223076887,130.45646529811515,12005.535364151001
-36.84340048165369,130.4529817415923,12005.860925674438
-36.83202745723339,130.44946334950424,12006.185033798218
-36.8206657081182,130.4460842996771,12006.509868621826
-36.80931147587309,130.4425136542412,12006.831796646118
-36.7979497267579,130.4390823510662,12007.157358169556
-36.78658797764271,130.43563363010858,12007.480739593506
-36.775222470092494,130.43218490915098,12007.807027816772
-36.76386447941234,130.4286490992803,12008.130409240723
-36.75250648873219,130.42516554275747,12008.455244064331
-36.74114849805204,130.4217690751477,12008.777172088623
-36.72979802424196,130.41825068305965,12009.10273361206
-36.71843627512678,130.41483679766725,12009.425388336182
-36.707078284446624,130.41140549449227,12009.75094985962
-36.69573908594165,130.40792193796943,12010.075057983398
-36.68439237056661,130.40445579922923,12010.400619506836
-36.6730381383215,130.40100707827162,12010.726907730103
-36.661687664511426,130.3975931928792,12011.048835754395
-36.650340949136385,130.3941444719216,12011.372943878174
-36.63899423376134,130.39071316874663,12011.69923210144
-36.62764000151623,130.3872470300064,12012.021886825562
-36.61630080301126,130.38379830904879,12012.350355148315
-36.60494281233111,130.38034958809118,12012.674463272095
-36.59360361382614,130.3769182849162,12012.996391296387
-36.582268173756205,130.37341731061073,12013.321226119995
-36.570913941511094,130.37005567856622,12013.650421142578
-36.55957098457109,130.36655470426075,12013.971622467041
-36.5482505782413,130.36312340108577,12014.298637390137
-36.536900104431226,130.3597095156934,12014.624925613403
-36.52554963062115,130.35629563030102,12014.946853637695
-36.51422922429136,130.352864327126,12015.272415161133
-36.50288626735136,130.3494156061684,12015.600883483887
-36.49155082728142,130.3460713919065,12015.922811508179
-36.4802266625166,130.34262267094888,12016.247646331787
-36.46889122244667,130.33919136777388,12016.574661254883
-36.4575520239417,130.33574264681627,12016.897315979004
-36.44622034230681,130.3323113436413,12017.225057601929
-36.43489993597702,130.32891487603152,12017.551345825195
-36.42356449590709,130.3254661550739,12017.876180648804
-36.41223657270723,130.32210452302937,12018.201015472412
-36.400919924812484,130.31863838428916,12018.528030395508
-36.38958448474255,130.3152767522446,12018.852865219116
-36.37826031997773,130.31189770241747,12019.179880142212
-36.36694743051802,130.3084838170251,12019.50544166565
-36.35561199044808,130.30501767828486,12019.8288230896
-36.34430285942341,130.30170829958817,12020.156564712524
-36.33297493622355,130.29824216084796,12020.482852935791
-36.3216582883288,130.2948456932382,12020.811321258545
-36.31033788199901,130.29141439006318,12021.134702682495
-36.299017475669224,130.28805275801867,12021.458084106445
-36.28769706933944,130.28458661927843,12021.785099029541
-36.27638417987973,130.28132949392958,12022.115020751953
-36.26507504885505,130.27796786188506,12022.44058227539
-36.253762159395336,130.27464106540575,12022.766870498657
-36.24245302837066,130.27122718001337,12023.091705322266
-36.23114389734598,130.26779587683836,12023.417993545532
-36.219834766321306,130.2643994092286,12023.747915267944
-36.20852563529663,130.26102035940144,12024.072750091553
-36.19722402114203,130.2576413095743,12024.39831161499
-36.18591113168231,130.25426225974715,12024.726053237915
-36.1745982422226,130.25086579213738,12025.050888061523
-36.16330414493807,130.24748674231023,12025.380083084106
-36.15200253078346,130.24412511026568,12025.704917907715
-36.14069339975879,130.2407112248733,12026.03193283081
-36.12938802716915,130.2373495928288,12026.361127853394
-36.118093929884616,130.2340576319147,12026.685235977173
-36.10679983260009,130.23069599987016,12027.014430999756
-36.095498218445485,130.2272995322604,12027.339992523193
-36.084200362725916,130.2239901535637,12027.667007446289
-36.072917540746495,130.22061110373656,12027.993295669556
-36.061619685026926,130.21721463612678,12028.322490692139
-36.05033310461247,130.21387042186487,12028.647325515747
-36.039039007327936,130.21052620760295,12028.97652053833
-36.02774491004341,130.20723424668887,12029.304988861084
-36.016458329628946,130.20389003242695,12029.63200378418
-36.00517174921449,130.200545818165,12029.958292007446
-35.993877651929964,130.1971841861205,12030.2867603302
-35.98260234682061,130.19387480742378,12030.613048553467
-35.97130824953608,130.19049575759664,12030.94151687622
-35.96003670286177,130.18716896111732,12031.272165298462
-35.94874636401227,130.18372024015972,12031.595546722412
-35.93745978359782,130.1804979503761,12031.924741744995
-35.92618072005343,130.17711890054895,12032.25175666809
-35.91490541494408,130.1738443574175,12032.58385848999
-35.9036263513997,130.17046530759035,12032.910146713257
-35.892347287855316,130.16713851111103,12033.236434936523
-35.88108325805107,130.16381171463172,12033.565629959106
-35.86981171137676,130.1604675003698,12033.891191482544
-35.85852888939734,130.15722779280355,12034.220386505127
-35.84726110115806,130.1538487429764,12034.547401428223
-35.83597827917864,130.1505219464971,12034.876596450806
-35.82471800780944,130.14726482114824,12035.20506477356
-35.81344646113513,130.14393802466893,12035.532806396484
-35.80217867289585,130.14062864597224,12035.862728118896
-35.79090712622154,130.13730184949293,12036.190469741821
-35.77965061328737,130.13400988857884,12036.521118164062
-35.76837530817802,130.13070050988216,12036.848859786987
-35.757118795243855,130.12740854896808,12037.176601409912
-35.745862282309695,130.12413400583662,12037.504343032837
-35.73459825250545,130.12075495600948,12037.834264755249
-35.72334173957129,130.117480412878,12038.16491317749
-35.712081468202086,130.11413619861608,12038.491201400757
-35.70081743839784,130.11087907326723,12038.818943023682
-35.68957971763886,130.10762194791837,12039.147411346436
-35.678319446269654,130.10434740478692,12039.479513168335
-35.66706669177053,130.10100319052498,12039.807981491089
-35.65581017883636,130.09765897626306,12040.135723114014
-35.64456494120731,130.09441926869684,12040.467824935913
-35.63332346201329,130.09119697891322,12040.792659759521
-35.62206694907912,130.0878701824339,12041.124034881592
-35.61082171145006,130.08459563930242,12041.453956604004
-35.59957271538597,130.08132109617097,12041.781698226929
-35.58832371932187,130.0780465530395,12042.114526748657
-35.57708975699793,130.07480684547326,12042.442995071411
-35.56584827780391,130.0715497201244,12042.772190093994
-35.55460679860988,130.06829259477556,12043.09920501709
-35.54336156098083,130.0650180516441,12043.43058013916
-35.53213135709191,130.06172609073002,12043.757595062256
-35.52088987789789,130.058521218729,12044.088970184326
-35.50965215713891,130.05517700446708,12044.418891906738
-35.498414436379925,130.0519895502487,12044.750267028809
-35.48718799092605,130.0486975893346,12045.076555252075
-35.47595027016707,130.04552755289882,12045.406476974487
-35.46471630784312,130.04220075641953,12045.738578796387
-35.45348986238925,130.03894363107068,12046.068500518799
-35.44227469224048,130.0356690879392,12046.395515441895
-35.43104448835157,130.0324642159382,12046.728343963623
-35.41982180133273,130.02918967280672,12047.061172485352
-35.40859535587886,130.02598480080573,12047.390367507935
-35.397372668860015,130.0227625110221,12047.71810913086
-35.38614622340614,130.0194531323254,12048.04948425293
-35.37493105325738,130.016265678107,12048.38013267517
-35.36370836623854,130.01300855275815,12048.710054397583
-35.35248943765474,130.00978626297453,12049.040702819824
-35.34127426750597,130.0065465554083,12049.369171142578
-35.33005909735721,130.00328943005945,12049.69981956482
-35.318847685643476,130.0001368114063,12050.03046798706
-35.307628757059675,129.99689710384004,12050.36184310913
-35.296421103780986,129.99367481405642,12050.69394493103
-35.28520593363222,129.9904351064902,12051.023866653442
-35.27400955565864,129.98723023448918,12051.355968475342
-35.26280190237994,129.98406019805338,12051.687343597412
-35.251586732231175,129.9807682371393,12052.015085220337
-35.24039035425759,129.97754594735568,12052.350093841553
-35.22917894254387,129.97437591091992,12052.677835464478
-35.21798632300532,129.9711710389189,12053.00775718689
-35.206778669726624,129.9679835847005,12053.33913230896
-35.19558229175304,129.9647961304821,12053.671960830688
-35.18438591377946,129.9615912584811,12054.003335952759
-35.17318577737084,129.95833413313224,12054.333984375
-35.16198939939726,129.95512926113125,12054.6660861969
-35.150800538293744,129.95195922469546,12054.998188018799
-35.13960416032016,129.94873693491184,12055.327383041382
-35.128415299216655,129.9456191518239,12055.658758163452
-35.11722267967811,129.94244911538811,12055.99231338501
-35.106026301704524,129.9392268256045,12056.32368850708
-35.094848715906124,129.93609162473393,12056.654336929321
-35.08365985480261,129.93288675273294,12056.98643875122
-35.07247475213414,129.9296470451667,12057.319993972778
-35.0612934079007,129.926564097644,12057.649188995361
-35.05010830523223,129.92332439007774,12057.98129081726
-35.038926960998786,129.92022402477244,12058.310485839844
-35.027734341460246,129.91696689942358,12058.646947860718
-35.016579306272064,129.9137968629878,12058.9761428833
-35.00540172047366,129.91067907989986,12059.309698104858
-34.99422413467526,129.9075264612467,12059.638893127441
-34.98305030731189,129.9043564248109,12059.973901748657
-34.97188023838357,129.90111671724466,12060.306730270386
-34.96070265258516,129.89803376972196,12060.641012191772
-34.94952506678676,129.89491598663403,12060.971660614014
-34.93837003159858,129.8916936968504,12061.303035736084
-34.927196204235216,129.88855849597985,12061.63731765747
-34.916033652176964,129.8854058773267,12061.964332580566
-34.904871100118704,129.8822184231083,12062.299341201782
-34.89371606493052,129.87910064002034,12062.630716323853
-34.882549754437235,129.87594802136718,12062.966451644897
-34.87139847768409,129.87281282049662,12063.29637336731
-34.86024344249591,129.86972987297392,12063.629201889038
-34.84908089043765,129.8664901654077,12063.963483810425
-34.837925855249466,129.86340721788497,12064.295585632324
-34.826755786321144,129.8602545992318,12064.627687454224
-34.81562330174318,129.85711939836125,12064.961242675781
-34.80446826655499,129.85401903305595,12065.29334449768
-34.793301956061704,129.85086641440276,12065.623992919922
-34.782165713048705,129.84780088466266,12065.95754814148
-34.77101443629556,129.84468310157473,12066.294010162354
-34.75987443484752,129.84151306513894,12066.625385284424
-34.748726916529414,129.83834302870318,12066.955307006836
-34.73758691508137,129.83527749896308,12067.293222427368
-34.726443155198304,129.83219455144038,12067.62387084961
-34.71530315375026,129.82909418613505,12067.955972671509
-34.704166910737264,129.82592414969926,12068.289527893066
-34.69302690928923,129.82285861995916,12068.623083114624
-34.6818981831463,129.81974083687123,12068.95736503601
-34.67075442326323,129.8166230537833,12069.293100357056
-34.659625697120305,129.81348785291274,12069.624475479126
-34.64849321254234,129.81043974095525,12069.958030700684
-34.63736072796438,129.80735679343255,12070.290859222412
-34.626235760256485,129.80430868147508,12070.62441444397
-34.61511079254859,129.8011560628219,12070.960149765015
-34.60398958327574,129.7980556975166,12071.291524887085
-34.59286461556785,129.7949901677765,12071.625080108643
-34.58173588942492,129.79188980247116,12071.960088729858
-34.570618438587104,129.78882427273106,12072.293643951416
-34.55949347087921,129.78570648964313,12072.625745773315
-34.548383536911466,129.78269321325087,12072.963661193848
-34.537262327638615,129.779662519076,12073.30084991455
-34.52615239367087,129.77656215377067,12073.631498336792
-34.515034942833054,129.77346178846537,12073.965780258179
-34.50392500886531,129.77036142316004,12074.299335479736
-34.4928188333326,129.76733072898517,12074.634344100952
-34.48171265779989,129.7643000348103,12074.96717262268
-34.470602723832144,129.76121708728758,12075.304361343384
-34.45949654829944,129.75813413976488,12075.635736465454
-34.448386614331696,129.75512086337264,12075.972925186157
-34.437287955669056,129.75205533363254,12076.307207107544
-34.426181780136346,129.7489549683272,12076.640035629272
-34.415083121473714,129.74592427415234,12076.97431755066
-34.40398446281108,129.74289357997748,12077.309326171875
-34.39289332101851,129.73984546801998,12077.64433479309
-34.381798420790915,129.73683219162774,12077.979343414307
-34.37069976212828,129.73380149745287,12078.312898635864
-34.35961613720579,129.73071854993017,12078.649360656738
-34.348513720108116,129.72772269132054,12078.983642578125
-34.337426336750596,129.7246397437978,12079.31865119934
-34.32634647026314,129.72160904962294,12079.653659820557
-34.31524781160051,129.71852610210024,12079.987941741943
-34.30416794511305,129.7155302434906,12080.32222366333
-34.2930880786256,129.71251696709834,12080.659412384033
-34.282000695268074,129.70948627292347,12080.99369430542
-34.27092458721565,129.7064555787486,12081.328702926636
-34.25984847916324,129.7034945557042,12081.66516494751
-34.24878364641593,129.70046386152933,12081.99654006958
-34.2376962630584,129.69741574957186,12082.333728790283
-34.22662015500599,129.6944024731796,12082.668737411499
