Latitude,Longitude,Altitude (m)
22.904344912366465,120.27359006508134,9.55756065571308
22.904347390743023,120.2735873500445,9.55761501944065
22.90434982212189,120.27358461636602,9.557673811674118
22.90435220650307,120.27358186404592,9.557735810756682
22.904354542937106,120.27357909231812,9.557802238345145
22.904356831265762,120.27357630156565,9.557872789025305
22.904359071647278,120.27357349108625,9.557947462797165
22.9043612642399,120.2735706608161,9.55802641236782
22.90436340698648,120.2735678099891,9.558109485030174
22.904365500519994,120.27356493911599,9.558197138905525
22.904367545473402,120.27356204749448,9.558288915872573
22.904369540739015,120.27355913531612,9.55838512134552
22.904371485367385,120.27355620200635,9.558485755324362
22.904373379833235,120.2735532475013,9.558590970516205
22.904375223661845,120.27355027212019,9.558701377749442
22.904377016220245,120.27354727471389,9.558816060781478
22.904378756558987,120.27354425617615,9.558935935854912
22.904380445311038,120.27354121657085,9.559060239434242
22.904382081843433,120.2735381555149,9.55918912422657
22.904383664257274,120.27353507275296,9.559323353767395
22.904385194609702,120.27353196924265,9.559462622642517
22.904386671001816,120.2735288447286,9.559607236266135
22.90438809264241,120.27352569882775,9.559756736516952
22.904389460322694,120.27352253268927,9.559911276102065
22.904390772302012,120.27351934593008,9.560071465849877
22.90439202952981,120.27351613886941,9.560237000346183
22.904393231056638,120.27351291208181,9.560408337712287
22.904394375458327,120.27350966550345,9.56058379817009
22.90439546384257,120.27350639983659,9.560765825033187
22.904396494468703,120.27350311527276,9.560952891230583
22.904397468919147,120.27349981251417,9.561146218419074
22.90439838482028,120.27349649149704,9.561344890356063
22.904399242805063,120.27349315324278,9.56154890704155
22.904400042240535,120.27348979775141,9.56175994825363
22.90440078249373,120.27348642546981,9.56197572338581
22.90440146356465,120.27348303684488,9.562197912216186
22.904402084978564,120.27347963283422,9.562426056623458
22.904402646260756,120.27347621331016,9.562660156607627
22.904403148044185,120.27347277986874,9.562900670289993
22.904403588429957,120.27346933187152,9.563147139549255
22.904403966943345,120.27346587046766,9.563399869799614
22.90440428532501,120.27346239597637,9.563659319162369
22.90440454104309,120.27345890922757,9.56392518222332
22.904404735047027,120.27345541066816,9.564196848154067
22.90440486607089,120.27345190061735,9.564475385904311
22.904404934114687,120.27344838009657,9.564760031938553
22.904404939178413,120.2734448494889,9.565051702499389
22.904404881262064,120.27344130943273,9.565350092172622
22.904404758150267,120.27343776031113,9.56565520095825
22.904404571583676,120.27343420320936,9.565966418027877
22.904404319821634,120.27343063857435,9.566285117745398
22.904404003497106,120.27342706672529,9.566609925746917
22.904403621977128,120.27342348817291,9.566942521810532
22.904403174628737,120.27341990413018,9.567281836986542
22.904402661135446,120.27341631491632,9.567627871274947
22.90440208086429,120.27341272097821,9.56798123550415
22.90440143397351,120.2734091231458,9.568341471552849
22.90440072046311,120.27340552186597,9.568708732128142
22.90439993970012,120.27340191809633,9.569083322644232
22.904399090576852,120.27339831202839,9.569465090394019
22.904398174359237,120.27339470468364,9.569854035377501
22.904397189781346,120.27339109618975,9.57025015759468
22.90439613636845,120.27338748769587,9.570654067873955
22.90439501459528,120.27338387952119,9.571065460801124
22.90439382367062,120.27338027204875,9.57148372554779
22.904392563752722,120.2733766661085,9.571909625649452
22.90439123420861,120.27337306214734,9.57234285569191
22.904389834563567,120.2733694608675,9.572784179210663
22.904388365925282,120.27336586258821,9.573232374548912
22.904386826078373,120.27336226826705,9.573688510656357
22.904385216605252,120.27335867822326,9.574151976704597
22.9043835370312,120.2733550925845,9.574623383522033
22.90438178656501,120.27335151301065,9.575102425694466
22.904379964890197,120.273347938991,9.575588492393493
22.90437807327269,120.27334437135545,9.576083416104316
22.904376109655352,120.27334081074243,9.576584753513336
22.904374076095326,120.27333725753499,9.57709479522705
22.904371971010193,120.27333371205232,9.57761277770996
22.904369794083472,120.27333017499669,9.578138090133667
22.90436754642285,120.27332664681498,9.578671190619469
22.904365227237122,120.27332312801792,9.579212537288665
22.904362836842775,120.27331961892472,9.579761213898658
22.904360374765076,120.27331611991842,9.580318136692046
22.904357840845794,120.27331263138207,9.58088238942623
22.904355235876128,120.27330915433713,9.58145473563671
22.904352559697838,120.27330568884743,9.582035022616386
22.904349811361477,120.2733022352322,9.582622944951057
22.90434699229122,120.273298794066,9.583218655347823
22.904344101379372,120.27329536566802,9.583822917342186
22.904341139575383,120.273291950549,9.584434661984442
22.904338105929806,120.27328854890047,9.585054347395896
22.904335000917367,120.27328516136083,9.585681515455246
22.904331825171028,120.2732817882493,9.58631677699089
22.904328578374308,120.2732784300766,9.58695967388153
22.90432525957776,120.27327508690658,9.587610816955566
22.90432187036379,120.27327175969684,9.588269442677497
22.90431841057417,120.27326844831971,9.588936467289924
22.904314879575924,120.27326515360512,9.589610669136047
22.904311277685537,120.27326187542539,9.590293269872666
22.90430760585246,120.27325861473814,9.59098258972168
22.90430386328548,120.2732553716072,9.591680461168288
22.904300049668123,120.27325214628796,9.592385967969895
22.904296166741037,120.27324893954649,9.593099415540694
22.904292213871262,120.27324575151049,9.593819887638091
22.90428819090055,120.2732425827545,9.594548453211784
22.904284098303634,120.27323943359777,9.595284654140471
22.904279935605782,120.27323630435946,9.596028337717055
22.904275703756444,120.27323319570993,9.596779809355736
22.904271402755622,120.27323010761727,9.59753861093521
22.90426703212859,120.27322704081561,9.598304895162581
22.9042625928248,120.27322399571996,9.59907881474495
22.904258084844248,120.27322097239414,9.599859911561012
22.90425350850342,120.27321797157234,9.600648338317871
22.90424886253638,120.27321499360566,9.601444400429726
22.904244149791477,120.27321203852605,9.602247639775275
22.904239367578604,120.27320910738688,9.603057750940323
22.904234517796663,120.27320620041156,9.603875039339066
22.904229601395098,120.27320331766398,9.604699657678603
22.904224616158533,120.27320045978254,9.605531300544738
22.904219563511134,120.27319762715027,9.606370884180068
22.904214444085873,120.27319482008637,9.607216117978096
22.90420925756627,120.27319203913353,9.608069445252418
22.904204004268795,120.27318928470667,9.608929033517837
22.904198684826426,120.27318655702928,9.609795035481453
22.904193297973226,120.27318385680357,9.610668367385864
22.904187845133368,120.273181184253,9.611548418402672
22.904182326148614,120.27317853979255,9.612434883117675
22.904176740860716,120.27317592351797,9.613328372359275
22.90417109006089,120.27317333651456,9.614228122591971
22.904165373907368,120.27317077849504,9.615133981108665
22.904159591450707,120.27316825025743,9.616046100616455
22.904153744273323,120.27316575205707,9.61696539735794
22.90414783126752,120.27316328411743,9.617889886140823
22.904141853699233,120.27316084707691,9.618821094036102
22.904135810935497,120.27315844106319,9.619758257508277
22.904129703767516,120.2731560667466,9.620701223850249
22.904123531562327,120.27315372415907,9.62165060389042
22.90411729447817,120.27315141381133,9.622605481386184
22.90411099314801,120.27314913586298,9.623566161751747
22.904104627413606,120.27314689079283,9.624532034158706
22.904098197749686,120.27314467904776,9.625503862142562
22.904091703048557,120.27314250046817,9.626481187582016
22.904085144576147,120.27314035556479,9.627464163184165
22.904078521857738,120.27313824484837,9.628452178120613
22.904071834576843,120.27313616819119,9.629445537805557
22.90406508352467,120.27313412619976,9.630443478703498
22.904058268068255,120.27313211893792,9.631447222471236
22.904051388049353,120.27313014640569,9.632455394744872
22.90404444489214,120.273128209018,9.633468453645705
22.90403743685596,120.27312630703024,9.634486399173737
22.904030364415537,120.27312444053817,9.635509078621864
22.90402322772911,120.27312260954177,9.63653572845459
22.904016026796683,120.27312081436028,9.637567112207412
22.904008760827043,120.27311905477022,9.638602771759032
22.904001430453164,120.27311733141003,9.639642401695252
22.9039940355168,120.27311564392856,9.640686307430267
22.903986574593777,120.27311399219815,9.64173372542858
22.903979048633545,120.27311237656991,9.642785419225692
22.903971457319624,120.27311079691617,9.643840625286101
22.903963800493766,120.27310925310924,9.64489934360981
22.903956077681254,120.27310774518104,9.645961574196814
22.90394828840736,120.27310627309964,9.64702670621872
22.903940432513842,120.27310483657779,9.64809535050392
22.903932510158945,120.27310343558354,9.64916704893112
22.903924520076735,120.27310206992536,9.65024119067192
22.903916462900177,120.2731007395075,9.651318233847617
22.903908338154547,120.27309944378732,9.652397720336914
22.903900144415676,120.2730981827648,9.653479802846908
22.903891882474767,120.27309695621652,9.6545641759634
22.90388355090765,120.27309576363173,9.655650534272194
22.903875150030807,120.27309460488274,9.656738266944885
22.903866679527752,120.2730934795227,9.657828137516974
22.903858137657835,120.27309238716853,9.658919535160065
22.903849526161707,120.27309132737335,9.660012459874153
22.903840841716303,120.27309030000949,9.66110660624504
22.90383208542931,120.27308930434275,9.662201821565628
22.903823255876556,120.27308834014971,9.663297800421715
22.9038143528998,120.2730874068558,9.664394237399101
22.90380537618256,120.27308650398219,9.665490979790688
22.903796324775385,120.27308563111393,9.666587874889373
22.903787198045315,120.2730847877722,9.66768522810936
22.903777995042894,120.27308397354204,9.668782275915145
22.903768715293403,120.27308318772121,9.669879018306732
22.903759357372664,120.27308243015008,9.670975149869918
22.903749921122444,120.27308170006258,9.672070059776306
22.903740405909772,120.27308099733101,9.673163900732993
22.90373081062696,120.27308032115737,9.674256672739983
22.90372113416632,120.27307967135012,9.675348070383071
22.903711375261917,120.27307904743046,9.676437788248062
22.90370153343903,120.27307844923878,9.677525673627853
22.903691607589966,120.27307787610478,9.678610810279846
22.90368159692352,120.27307732796457,9.67969365632534
22.90367150001552,120.27307680446707,9.680774059057235
22.90366131496707,120.27307630529303,9.681851254940032
22.90365104177817,120.27307583037864,9.682925243973731
22.90364067854992,120.27307537950044,9.683995568037032
22.903630224253753,120.27307495249885,9.685062685251236
22.90361967675341,120.27307454962921,9.68612583208084
22.903609034703845,120.27307417047656,9.687184703111647
22.903598297551206,120.27307381558354,9.688239298343658
22.903587463238356,120.2730734845033,9.689289159655571
22.903576529787276,120.27307317768268,9.690334592461586
22.903565496011165,120.27307289518555,9.691374680519104
22.90355435937815,120.27307263755455,9.692409423828124
22.903543118780547,120.27307240475776,9.693439127802849
22.90353177152825,120.27307219730591,9.694463334321975
22.903520315564123,120.27307201570973,9.695481432557106
22.90350875049256,120.2730718602565,9.69649403333664
22.903497071882803,120.27307173148888,9.697500525832176
22.903485278706288,120.27307163004528,9.698500910043716
22.903473369064113,120.27307155621297,9.699495338678359
22.903461339474966,120.27307151114111,9.700483200907707
22.90344918835644,120.27307149495738,9.701465871095657
22.903436913097543,120.2730715084598,9.70244197487831
22.903424510216976,120.27307155257402,9.703412581205367
22.903411978448798,120.273071627747,9.704377690076827
22.903399313362254,120.27307173512783,9.705337606906891
22.90338651464086,120.27307187519533,9.706292026281357
22.90337357650881,120.2730720488752,9.707241864442825
22.90336049825401,120.27307225690163,9.708188648462295
22.903347275287466,120.27307250016837,9.709131767511368
22.903333906422365,120.27307277944152,9.710072748661041
22.903320386753226,120.27307309567871,9.711012202739715
22.903306713906428,120.27307344964602,9.711951656818389
22.90329288463802,120.2730738422053,9.712892637968062
22.903278895308453,120.27307427415461,9.713836825966835
22.903264742436416,120.27307474638766,9.714786206007004
22.903250423015322,120.27307525970251,9.715742763280868
22.90323593356386,120.27307581489715,9.716710315465926
22.903221270046874,120.27307641267386,9.717691305875778
22.903206428983058,120.27307705389447,9.71869016301632
22.903191406732855,120.27307773926124,9.719710857272148
22.9031761999732,120.273078469253,9.720758886098862
22.90316080451069,120.27307924457196,9.721840968608856
22.90314521670578,120.27308006579273,9.722964129328727
22.903129432523315,120.27308093336217,9.724137377977371
22.903113448877583,120.27308184731221,9.72537079322338
22.903097261496068,120.27308280828127,9.72667674434185
22.90308086650186,120.27308381614166,9.728069738507271
22.903064261046605,120.2730848705742,9.729567489743232
22.903047441292962,120.27308597151499,9.731190308094025
22.903030404036535,120.27308711807031,9.732963390231133
22.903013146072936,120.27308830944212,9.73491681945324
22.902995664870303,120.27308954448128,9.737086940050125
22.902977957501175,120.27309082136831,9.739518342494964
22.902960022580935,120.27309213790072,9.742265237808226
22.90294185868541,120.27309349110988,9.745393290042877
22.902923465537683,120.27309487735683,9.748984961032868
22.902904843889395,120.27309629194924,9.75314225912094
22.9028859950856,120.27309772958833,9.757992694735526
22.90286692260761,120.27309918306001,9.763696457624436
22.90284763167739,120.27310064400112,9.770456495523453
22.902828130286128,120.27310210181402,9.778532715916633
22.902808429035996,120.27310354369854,9.78825847840309
22.902788542485204,120.27310495414129,9.800066402196883
22.902768490334804,120.273106313958,9.814518754839897
22.90274829790342,120.27310760010201,9.832350515604018
22.90272799893602,120.27310878362135,9.854518089056015
22.902707635485257,120.27310982997795,9.882247865915298
22.9026872639444,120.2731106963025,9.917060961604118
22.902666955027577,120.27311132970257,9.960690143585204
22.90264680027742,120.27311166560284,10.014730132102965
22.90262691760354,120.27311162391456,10.079718914270401
22.9026074574935,120.27311110584354,10.153380696177482
22.902588614129254,120.27310998900629,10.228612917900085
22.902570635692634,120.27310812190773,10.293796248912809
22.90255384003124,120.27310531794014,10.338181789159773
22.902538630264996,120.27310134810527,10.359161454081534
22.902525511352053,120.27309593549212,10.363374337553976
22.9025150997415,120.2730887533297,10.360427548646925
22.90250811660856,120.27307943303106,10.356724248766897
22.902505340579953,120.27306759298568,10.35423573386669
22.902507493661677,120.27305290581609,10.352346899747847
22.902515035149346,120.27303521906958,10.349826010942458
22.902527897256302,120.27301473183483,10.3458203510046
22.902545290783316,120.27299217237987,10.340018702864645
22.902573078979167,120.27296997460104,10.357403489947318
22.902595381163806,120.2729438848576,10.35132192969322
22.9026172070221,120.27291880107529,10.339077569007872
22.902630379905247,120.2728971548362,10.31163152194023
22.902641340000216,120.27288360009706,10.311141026735305
22.902645499869504,120.27287387509335,10.321664378404616
22.902641251048777,120.27286376870255,10.318675595045088
22.902644808018394,120.27285746778753,10.323111736297605
22.902660105588822,120.27285677431293,10.305315556287765
22.902697942132345,120.27286794903766,10.285953823089597
22.9027355327292,120.27288331503031,10.201151905536651
22.90277130987979,120.27290132422256,10.099555261135102
22.90278977981415,120.27291132770141,9.978218169927597
22.902810406578574,120.27291743833784,9.941132792592049
22.902827677676207,120.272915018311,9.915785704612732
22.902845540359255,120.27291110515112,9.886145103812217
22.902859575578823,120.27291035353319,9.841985417366027
22.902866853535247,120.27291469244976,9.803902404546736
22.902869149261686,120.27292528998656,9.807909438848496
22.90285817684367,120.2729417021443,9.808927078962325
22.902842856110656,120.27297121784379,9.828054712176323
22.902827759882605,120.27300597879682,9.841456134557724
22.902818364458664,120.27303845300739,9.870078331708907
22.902816005158748,120.27306700628542,9.888113651037216
22.902821556345625,120.273092547346,9.886932614326476
22.902831343773038,120.2731088192128,9.878359637737274
22.902840085739182,120.27311317167964,9.86539037644863
22.902845768978494,120.27311407573431,9.85931492447853
22.90285013280115,120.27311664862881,9.8402454726696
22.90285527900876,120.27312130574569,9.814823863625525
22.90286234306239,120.27312602641642,9.78309713113308
22.90287118001293,120.2731301850615,9.747305641055107
22.902880512298562,120.27313464439845,9.71431021797657
22.90288858320256,120.27314012034203,9.6885205848217
22.902893361261594,120.27314546100621,9.669373557806015
22.902894743262724,120.27315212589563,9.670500841617583
22.902894024292994,120.27316070940344,9.687583268642426
22.90289274795755,120.27317032298836,9.709236371874809
22.902892795627768,120.27318680830808,9.740780924797058
22.9028905198793,120.2732146719739,9.766979660272598
22.902879696643346,120.27325837916426,9.798383264541625
22.902850434488347,120.27331308535656,9.82028390598297
22.902804372755476,120.27336912493531,9.841545773625374
22.902755081236833,120.27341646124026,9.86085207414627
22.902714075157945,120.27345388863107,9.878011312842368
22.902683186400196,120.27348437278499,9.892258427143096
22.902661282311318,120.27350883212095,9.903511260628699
22.90264713873596,120.2735272393788,9.911921909570694
22.902639274969935,120.27354040106387,9.917867255091666
22.902636172370674,120.27354982440214,9.921249717354774
22.902637211205583,120.27355702683413,9.924071744561195
22.902641523105277,120.27356289587966,9.9260296022892
22.90264838722092,120.27356780322195,9.9274577190876
22.902656835135016,120.27357186524344,9.927890491008759
22.902666139253682,120.27357501510244,9.927515900492667
22.902675587075304,120.27357719470348,9.926695252537726
22.902684444379638,120.27357860776371,9.924855895519256
22.902692401033356,120.27357946649116,9.921985307455062
22.90269941033547,120.27358005561739,9.917853969573974
22.902705766298467,120.27358040457317,9.913296578884124
22.90271170114158,120.27358070960622,9.908179058551788
22.902717475448807,120.27358108294933,9.902733523368834
22.902723218898966,120.27358173151167,9.896839029312133
22.90272910797076,120.27358258794084,9.890796256661414
22.902735206870627,120.27358353444987,9.884828615903853
22.902741509110676,120.27358440881841,9.879113094568252
22.9027479274999,120.27358508464093,9.873565245628356
22.90275432405181,120.2735854733059,9.867682051897049
22.90276065548739,120.2735854177641,9.861622328758239
22.902766807556365,120.27358486381435,9.855179463505744
22.9027726765315,120.27358376619328,9.848326732397078
22.902778099028573,120.2735821714411,9.840650757312774
22.902783008190596,120.27358009251758,9.83286681830883
22.902787407380195,120.2735775466598,9.825571083903313
22.902791362663155,120.27357457893963,9.818260842323303
22.902794989436998,120.27357121585116,9.811008629441261
22.902798390281706,120.27356746831123,9.803588744163513
22.902801644753133,120.27356324445239,9.796169927835464
22.902804834424714,120.27355856444846,9.788624364614487
22.902808133203727,120.27355347803173,9.781103845357894
22.902811659573416,120.2735477343064,9.77419720864296
22.902815224158395,120.27354115311273,9.768669364333153
22.902818490181442,120.27353431763973,9.765138928890227
22.902821383150428,120.27352761553091,9.763926434516906
