Latitude,Longitude,Altitude (m)
22.90288789781482,120.27306875176589,7.206596267834306
22.902887256474106,120.27306908700159,7.206162202551961
22.90288660541077,120.27306942255753,7.205730530396104
22.902885945152747,120.27306975729002,7.205302256479859
22.902885275480063,120.27307009266298,7.2048765192776925
22.902884596568693,120.2730704277157,7.204454132452607
22.902883908418637,120.27307076350037,7.204035191729665
22.9028832110299,120.27307109955953,7.203619170621038
22.902882504666437,120.27307143653363,7.203206428095698
22.90288178932825,120.27307177382797,7.202796988084913
22.902881064927357,120.27307211231172,7.202391568526626
22.90288033203567,120.27307245161893,7.201989188238978
22.90287959012527,120.27307279188683,7.201589871153236
22.902878839636088,120.27307313393888,7.201194622382522
22.902878080656112,120.27307347708886,7.200802245363594
22.902877313053366,120.27307382220597,7.200413649484515
22.902876537223793,120.27307416915298,7.200028164669872
22.902875753035406,120.27307451802136,7.199645934507251
22.90287496079617,120.2730748690856,7.199267126515508
22.90287416055007,120.27307522220848,7.198891118481756
22.902873352121134,120.2730755779847,7.198518269374967
22.90287253630125,120.27307593659724,7.198148459538817
22.902871712210544,120.27307629781737,7.197781114622951
22.902870880816877,120.2730766615536,7.197416330352426
22.902870041900282,120.27307702926984,7.197054011002184
22.90286919559274,120.27307739995966,7.19669370187819
22.90286834229019,120.27307777376028,7.196335738018155
22.9028674815527,120.2730781519069,7.195979760453105
22.902866613644232,120.27307853321007,7.195625434145332
22.902865738916734,120.27307891831026,7.1952723761945965
22.902864857590174,120.2730793075277,7.194921041294933
22.90286396948858,120.2730797007709,7.194570711508393
22.902863074919903,120.27308009854306,7.194221362903715
22.90286217366418,120.27308050098145,7.193873258724809
22.902861265633423,120.2730809068509,7.19352587248385
22.90286035188348,120.27308131857596,7.193179539218545
22.902859431358497,120.27308173377783,7.192833421334624
22.902858504850368,120.27308215410339,7.192488619670272
22.902857571919153,120.27308257882068,7.192144894912839
22.902856633092778,120.27308300834143,7.19180236671865
22.902855687843317,120.27308344234541,7.191461968407035
22.902854736346747,120.27308388096986,7.191123915359378
22.902853778427087,120.27308432407754,7.1907886383384465
22.902852814436294,120.27308477203442,7.190457142457366
22.902851843846438,120.27308522374258,7.190130887523294
22.902850866745514,120.2730856794765,7.189810830786825
22.902849882825556,120.27308613905318,7.189499006405473
22.9028488918666,120.27308660265562,7.189196945980192
22.902847893956633,120.27308706936887,7.188907521262765
22.902846888039807,120.27308753873547,7.188633939042687
22.90284587468804,120.27308801080113,7.188379250556231
22.90284485262551,120.27308848478819,7.188147536084056
22.902843821896216,120.27308896101687,7.187944096401334
22.90284278184025,120.27308943770302,7.1877742801457645
22.902841731709717,120.27308991521261,7.187644955590367
22.902840671020684,120.27309039235624,7.187564486712217
22.902839598717307,120.27309086831042,7.1875411656945944
22.902838514095684,120.27309134261772,7.187586288094521
22.90283741627594,120.27309181445465,7.187712142616511
22.902836304114235,120.27309228263181,7.18793367433548
22.902835176114785,120.27309274600552,7.18826668985188
22.90283403157369,120.2730932036608,7.188731219634414
22.9028328687312,120.27309365431678,7.189349579587579
22.902831685959544,120.273094096784,7.190147543683649
22.902830481630957,120.27309452991878,7.1911548824161295
22.90282925420566,120.27309495207423,7.192406308084727
22.902828001219998,120.27309536160344,7.193940361991525
22.902826721046207,120.27309575786596,7.195801939189434
22.90282541091268,120.27309613784246,7.198041851736606
22.902824068663726,120.27309650107547,7.200717528685928
22.902822691483742,120.27309684527764,7.203894260510802
22.902821276425147,120.27309716852757,7.207645217053592
22.90281982067235,120.27309746917837,7.212052751779557
22.902818320749834,120.27309774512567,7.217210304312408
22.902816773006126,120.27309799453957,7.223222968801856
22.90281517383374,120.27309821476675,7.230212118640543
22.902813518525342,120.27309840434327,7.238321227744222
22.90281180316549,120.27309856047856,7.247724276408554
22.90281002260692,120.27309868093103,7.258639410078525
22.90280817130642,120.27309876327604,7.271350836455822
22.90280624363279,120.27309880522625,7.28623498237133
22.902804232986966,120.27309880330486,7.303798137664796
22.902802132549926,120.27309875540752,7.324721230581403
22.902799933962854,120.2730986581489,7.349911447510124
22.90279762869097,120.273098507915,7.380562216699124
22.902795206747687,120.27309830196096,7.418217535495758
22.902792657134576,120.27309803607805,7.464837745428086
22.90278996718144,120.27309770560007,7.522859288573265
22.902787121974406,120.27309730650121,7.595219631969929
22.902784105543738,120.27309683406956,7.685264510035515
22.90278089901613,120.2730962817175,7.796361003875733
22.902777480702664,120.27309564409259,7.930858732938766
22.902773825614897,120.27309491405828,8.087889662384987
22.902769905244888,120.27309408429501,8.25984891486168
22.902765686597334,120.27309314615654,8.429440695166589
22.902761131265702,120.2730920912254,8.572754606485367
22.902756195740185,120.27309090875097,8.671787924051285
22.902750828900054,120.2730895882114,8.725628675222397
22.90274497280556,120.27308811716345,8.74609689462185
22.90273856038825,120.27308648325536,8.745767600417137
22.90273151529699,120.27308467152777,8.732854768514633
22.902723751128075,120.27308266720433,8.712127995729446
22.902715169555506,120.27308045258088,8.686502684473991
22.90270566283861,120.27307800862657,8.657883189082145
22.90269511190834,120.27307531351995,8.627543801546096
22.902683391140577,120.27307234031592,8.59634001672268
22.902670371963616,120.27306905657969,8.564854417324065
22.902655931744913,120.27306541908011,8.533494983553886
22.902639967803086,120.27306136990121,8.502557793021202
22.902622416193235,120.27305683072372,8.472267416715622
22.902603280522847,120.27305169408739,8.442797787070274
22.902582662351463,120.27304582055466,8.414284355044366
22.902560799905178,120.27303903532537,8.386834811329841
22.902568776519853,120.27300162859235,8.723998477458954
22.90257207096895,120.27296753761863,8.89926340341568
22.90254830110815,120.27289803707586,9.060401416540145
22.902478656468784,120.27287600068047,9.027048699855804
22.90242141929544,120.27289292130027,9.390044443368913
22.902415313849936,120.27293499653821,9.65083320069313
22.90243744095705,120.27300780167793,9.838980422258377
22.902450151116494,120.27308884134212,10.0275300719738
22.902438643976822,120.27314455506476,10.110385280132293
22.902410751286833,120.27316673780554,10.196358253479003
22.902377933070277,120.2731655374897,10.252586961984635
22.9023425839242,120.2731508224354,10.279051686286927
22.902303455189454,120.27312501088703,10.258631425142289
22.902260202019743,120.27308744426743,10.225948400974273
22.90221656009937,120.27303946118634,10.192052540302276
22.90218162755337,120.27298943880807,10.1816118080616
22.90216360217495,120.27294280961628,10.154686071872712
22.90216513291508,120.27290093401926,10.136978467464447
22.902180570141873,120.2728593638765,10.113974012613296
22.90220062904286,120.27281615079056,10.10615863585472
22.902220564585402,120.27277188858338,10.097048481941224
22.902238805621128,120.27272583356509,10.065380717754364
22.90225579257135,120.272681100373,10.055996790170669
22.902272029252355,120.27263887082965,10.037824727773666
22.90229087410214,120.27260564466158,10.053849485635757
22.90231333712894,120.27257957706595,10.042794772863388
22.90234025408181,120.2725620064695,10.052633011579514
22.902371183836905,120.27255143167685,10.060796636104584
22.902406144999453,120.27254778196276,10.08547551369667
22.902444531691813,120.27254880679223,10.10324648809433
22.902485519931894,120.27255394283384,10.111123128890991
22.90252857871527,120.27256539784896,10.094154713392257
22.90257327672733,120.27258691249719,10.054020067691804
22.902618738096745,120.27262102652752,10.008839945554733
22.902660913023922,120.27266220804755,9.946451329469681
22.902695992003075,120.27270338027517,9.88870327281952
22.902720412399283,120.27273649674139,9.778626346588135
22.902738182086097,120.27276854240218,9.735146875858307
22.9027524009723,120.27280175818562,9.69493450140953
22.902766861890054,120.27284064465857,9.746891191959381
22.902779743564587,120.2728809821422,9.746611291885376
22.902789620730754,120.27292179617473,9.731503771543503
22.902795622136562,120.27296190606587,9.680380080461502
22.90279782749867,120.27300066012347,9.634763069152832
22.902796795713527,120.27303740361313,9.596669664621354
22.902793405468067,120.27307320406939,9.567445186853409
22.90279096500342,120.27311506639971,9.554419686555862
22.902793050174633,120.27316769872613,9.534549844503402
22.902801054175413,120.27322113373346,9.501170516252518
22.902808711725502,120.27324656736397,9.486951898813247
22.902811795114637,120.2732364147725,9.485465480089188
22.902816116707537,120.27323088814103,9.496316489934921
22.902824356382773,120.27324868033706,9.515918876171112
22.902831731845012,120.27326516654115,9.526330316543579
22.902837380377047,120.2732780537191,9.508985701560974
22.902842261834262,120.27328952890875,9.503268043756485
22.90284639047063,120.27329742973002,9.48445845246315
22.9028490745286,120.27330029433013,9.44300433254242
22.902851317637335,120.27330184310263,9.426740070581436
22.902853405140217,120.27330434950191,9.405015842676162
22.902854955391568,120.27330828312331,9.381137035131454
22.902856840039323,120.27331551182625,9.364419227838516
22.902860720682984,120.27332679844584,9.346423873901367
22.902860502825995,120.27331222557393,9.142005498170853
22.902858280350323,120.27328349361382,8.981313946723938
22.902850402083647,120.27323704860038,8.683933423876763
22.90284855223494,120.27321091741611,8.591179287314414
22.902852239922066,120.27318849418214,8.40592487704754
22.902855865490032,120.27316542074277,8.300794638991356
22.902855475617525,120.2731454276932,8.226693487524987
22.902852567983373,120.27313298796892,8.19627196788788
22.90284958349216,120.2731259423464,8.182680253863335
22.90284684972126,120.27312084683682,8.175482782363892
22.90284372814556,120.27311602727455,8.162582777619361
22.902839992901203,120.27311129088075,8.1509493111372
22.902835978824534,120.27310677471411,8.152363170266153
22.90283211230286,120.2731027224244,8.172305189013482
22.90282874299842,120.27309928287309,8.20254904294014
22.902826167956928,120.27309654641098,8.23671580553055
22.902824596368617,120.27309452214176,8.271081963419915
22.90282415062406,120.27309316139038,8.303206144690513
22.902824893634307,120.27309242952617,8.331311883687974
22.902826858130695,120.27309235527842,8.354389951109887
22.90283008964675,120.27309301582268,8.374367579579353
22.902834530506674,120.27309442524913,8.392155784487725
22.902840056516148,120.27309646484366,8.410051010012626
22.90284626755212,120.27309884562105,8.42225212609768
22.902852911750443,120.27310143939755,8.427699264883996
22.902859713534333,120.27310424210165,8.42511937880516
22.902866592703212,120.27310744006184,8.421399024367332
22.90287331032708,120.2731111048725,8.418774530410767
22.902879616697486,120.27311525185898,8.418107422471047
22.90288525282329,120.27311981688366,8.418910268545151
22.90289001501348,120.27312469180009,8.421092034101486
22.902893756636928,120.27312971333639,8.424644486784935
22.902896386010685,120.2731346866551,8.429989008307457
22.90289789657968,120.27313947103775,8.437639355063439
22.90289834997915,120.27314400042533,8.448112059473992
22.902897859272993,120.27314825949253,8.461121095061303
22.90289655331887,120.27315222856804,8.476683979511261
22.902894563570076,120.27315587334142,8.494785396814347
22.902892012329197,120.27315915085603,8.515170814037322
22.902889010680425,120.2731620160966,8.537317859530448
22.902885662317004,120.27316440931723,8.560155369877815
22.902882042996147,120.27316627045184,8.583964202404022
22.902878236613915,120.27316751642341,8.607004745602607
22.902874309732834,120.27316808240816,8.6273636469841
22.90287026054916,120.27316798277069,8.64571787416935
22.902866099797368,120.27316731193329,8.659880396723748
22.90286177173739,120.27316629575004,8.667662173986436
22.902857116759936,120.27316521149493,8.670442316889764
22.90285201709378,120.27316421521174,8.671585944175721
22.902846430372946,120.2731632929933,8.670804827690125
22.9028400793489,120.27316222328581,8.673563336730004
22.902832889276272,120.2731606837085,8.68140953695774
22.902824700721762,120.27315854520845,8.700376691699029
22.90281566999512,120.27315593098292,8.719147418618203
22.902805737044893,120.27315281248569,8.737655667424201
22.902794834736635,120.27314915874585,8.755838833928108
22.90278288810502,120.27314493517851,8.773640344619752
22.902769812594077,120.27314010271552,8.791010996818542
22.902755514805104,120.27313461689057,8.80791451072693
22.90273989377247,120.2731284270615,8.824324274778366
22.902722843361282,120.27312147247595,8.840228993415833
22.902704260648186,120.27311368268322,8.855630581140518
22.90268405898752,120.27310497263919,8.870542439460754
22.902662188688353,120.27309524115098,8.884987925291062
22.90263866884397,120.27308436927581,8.898997287750245
22.902613631413587,120.27307222247106,8.912599818706513
22.902587375334654,120.27305865914904,8.925820598125458
22.902560421800995,120.27304355144626,8.938672453165054
22.90253355444007,120.27302682346806,8.951152703523636
22.90250781686034,120.2730085028,8.96323665213585
22.90248443804888,120.27298878080278,8.974879308223725
22.902464683232616,120.2729680545852,8.986015770196914
22.902449649219427,120.27294692718729,8.996566777706146
22.902453912614114,120.27291286979204,9.273723180055619
22.902471097057724,120.27287943732684,9.378912767648696
22.902493979047897,120.27285145219027,9.52218293261528
22.902511412622548,120.27283792432236,9.482366477012635
22.902523062901345,120.27283676675731,9.655771847963333
22.90253142812371,120.27283975954116,9.74426966547966
22.902536909567527,120.27284312157377,9.830920372247697
22.90253827952154,120.27284304085278,9.908212231397629
22.902534026877824,120.27283674923612,9.981912486314773
22.902523543477944,120.27282510450722,10.022767175912858
22.902510019208876,120.27281492497063,10.045994287252427
22.902499242898685,120.27281188861255,10.028328801870346
22.902495835275694,120.27281591164692,9.971846039056778
22.902501125236768,120.27282014845808,9.9229925634861
22.90251076967606,120.27281340259428,9.874451917409896
22.902522837708396,120.27279829683576,9.876359334945679
22.902537555659567,120.2727776518424,9.843580777168274
22.90255501789614,120.2727586397507,9.830720115423203
22.90257214784801,120.27274256657549,9.811824180126191
22.902587477202157,120.2727329282744,9.825620458602906
22.9026002042387,120.27272887820342,9.848159306764602
22.90261002720458,120.2727284713733,9.878020547628402
22.902617788139953,120.27273088797077,9.908509553432465
22.902624874827296,120.27273593558299,9.931268569231033
22.902631976626484,120.27274326309995,9.930000786542893
22.90264040001957,120.27275621139619,9.931761170387269
22.90265121348247,120.2727764437724,9.920862872362138
22.90266605364825,120.27280739124802,9.918561259031296
22.902684295101913,120.27284728258178,9.901644917964935
22.902703983641615,120.27289326191128,9.893040192365646
22.902721741956046,120.2729375893769,9.889422550916672
22.90273418771862,120.27296968609157,9.88602469420433
22.902741601631387,120.27298598809445,9.890833921194076
22.90274650611932,120.27299028378229,9.89197630405426
22.9027513850249,120.27298953480863,9.895368800163268
22.902757388938355,120.2729887577233,9.882459701538085
22.902764849176528,120.27299120032806,9.862183793783188
22.902772069164893,120.27299702253241,9.804436311483384
22.902779031349954,120.27300817351143,9.775597414255142
22.902785834277683,120.2730255960241,9.73316440987587
22.90279436193593,120.27305204574635,9.730698149442674
22.902802606186512,120.27308345474292,9.683254512548446
22.902808969616796,120.27311585288611,9.650848516702652
22.902813327680505,120.27314727281626,9.608346015930175
22.9028166439285,120.27317785401668,9.556444654464721
22.90281984918029,120.27320771543017,9.488194410085677
22.902822416390894,120.27323447001197,9.38748360657692
22.90282384557148,120.27325464019482,9.271875494956971
22.902823282407635,120.27326299784792,9.098572549819947
22.902819864842062,120.27325492876835,8.894217735528946
22.902816520570056,120.27323954713115,8.795426985263825
22.90281562503352,120.27322775207685,8.813449716567993
22.902818416216245,120.27322494429481,8.845683215856551
22.902821951465068,120.27322066857562,8.79110710477829
22.902826209706987,120.27321720303989,8.695517879128456
22.9028303935115,120.27321456795363,8.567647578835487
22.902834835207305,120.27321452527147,8.48978481543064
22.90283904703583,120.27321654290735,8.447218657493591
22.902842013885554,120.27321846127172,8.425836455225944
22.902844507890578,120.27322099612579,8.43106323492527
22.902847064542687,120.27322502151614,8.440733763337136
22.90285121975127,120.27323502698451,8.480731809377671
22.9028559879686,120.27324824999286,8.49636457312107
22.9028611161427,120.2732636441648,8.521005735039711
22.90286508939318,120.27327302957521,8.55926302087307
22.90286523708016,120.2732583857036,8.59044086420536
22.902869349130885,120.2732389162311,8.642689899086953
22.902876156897925,120.2732196469027,8.618897435545922
22.90288621584622,120.27321569754426,8.707241135716439
22.902896890662856,120.27322665633918,8.77652741241455
22.90290891445949,120.27326243424204,8.941939932346344
22.902915843825223,120.27330119294298,9.02371402168274
22.90291641495193,120.2733310142819,9.104348791360856
22.90291389587048,120.27334543737737,9.164906569957733
22.902910389085605,120.27334999123973,9.21366489481926
22.90290690196593,120.27335312446756,9.248004153966903
22.90290398469715,120.2733569584515,9.26866277050972
22.902901568912995,120.27335999341429,9.277360157966614
22.902899204865474,120.27336129515174,9.274201039552688
22.90289656955256,120.2733612850416,9.260807572126389
22.902893637853833,120.27336085680177,9.241804041862489
22.902890560447844,120.2733605705156,9.223001917123796
22.902887510713917,120.27336052321297,9.210110049009323
22.902884585614252,120.27336052133734,9.20504868221283
22.902881799050867,120.27336030284856,9.206899430513381
22.902879106194145,120.27335961078445,9.213432282924652
22.902876446376723,120.27335821727804,9.222840333223344
22.902873689553108,120.27335570607531,9.232304861307144
22.902870788122073,120.27335192726254,9.239654631376267
22.90286771194791,120.2733469516107,9.242830023050308
22.902864634233964,120.2733414130392,9.242299514770508
22.90286161124823,120.2733356021802,9.238181997060776
22.902858667451227,120.27332965522316,9.231559545993806
22.902855772091325,120.27332355062117,9.22365820813179
22.90285288922565,120.27331726966361,9.215425278663636
22.902849991798046,120.27331085013768,9.207766316652298
22.902847033307133,120.27330428440361,9.200132051706314
22.902843992371952,120.27329761948953,9.192844502925873
22.902840822931065,120.27329083105793,9.186312033414842
22.902837465416944,120.27328376608433,9.18029820227623
22.90283389673288,120.27327633398919,9.175068933725358
22.902830118330666,120.27326849026048,9.170838460445404
22.902826147191885,120.27326032140618,9.16789950966835
22.902821992951164,120.27325188593703,9.16605201601982
22.902817662911467,120.273243262767,9.165026609182357
22.902813165387606,120.27323446895979,9.165154114961624
22.902808496024203,120.27322556403254,9.166418451547623
22.902803633220334,120.27321656944073,9.16822554922104
22.902798544156667,120.27320743838494,9.169926966428758
22.90279318136396,120.27319814167842,9.170257026433944
22.902787487738344,120.27318867579864,9.168945401668548
