Latitude,Longitude,Altitude (m)
22.90326108380311,120.27347586531323,11.515820349752902
22.903255469590306,120.27347452691389,11.498414023220539
22.903249836680935,120.27347312273231,11.481374712288378
22.90324418577393,120.2734716526651,11.464715874195099
22.903238517742963,120.2734701150056,11.448446072638033
22.90323283258804,120.2734685096504,11.432582435011863
22.90322713127019,120.27346683577204,11.41713597178459
22.903221414226255,120.27346509202594,11.402116470038889
22.903215682067803,120.27346327836037,11.387539833784102
22.903209935581142,120.27346139286185,11.373420743644237
22.903204174941,120.27345943578895,11.359770210087298
22.903198400933686,120.27345740595223,11.346605360507963
22.9031926140834,120.27345530247253,11.333940875530242
22.903186814564883,120.27345312462579,11.32179143577814
22.903181003950735,120.27345087137775,11.310170498490333
22.90317518162939,120.27344854200436,11.29909641444683
22.903169348911355,120.27344613572988,11.28858386427164
22.90316350605873,120.27344365167518,11.27864752858877
22.903157653770453,120.27344108896108,11.2693045347929
22.90315179222126,120.27343844681182,11.2605720102787
22.903145922459554,120.27343572471028,11.252468305826186
22.90314004439797,120.27343292151869,11.245008102059364
22.90313415908491,120.27343003609933,11.238209749758242
22.90312826686985,120.27342706834875,11.232089152932167
22.903122368014884,120.27342401697408,11.226668332517146
22.90311646356842,120.27342088161329,11.221958298981189
22.90311055387993,120.27341766087008,11.217979849874972
22.903104638774675,120.27341435458928,11.214752559363841
22.903098719825266,120.27341096168489,11.212291108071803
22.903092796332764,120.27340748148457,11.210612623393535
22.90308686986978,120.27340391341949,11.209735456109046
22.90308094026158,120.27340025640359,11.209674286842345
22.903075008119732,120.27339651023003,11.21044991314411
22.903069074230544,120.27339267386448,11.212073345482349
22.903063138419274,120.27338874653123,11.214562934637069
22.903057201734335,120.27338472786825,11.217935808002947
22.903051264088358,120.2733806174101,11.222205422818659
22.903045326442378,120.27337641407075,11.227384012937545
22.9030393887964,120.2733721177468,11.23348870575428
22.903033451674624,120.27336772755905,11.24053051173687
22.90302751577599,120.27336324293864,11.248521664738654
22.903021581449963,120.27335866383386,11.257478068768977
22.90301564887128,120.27335398926212,11.267408287525177
22.903009718738875,120.27334921932683,11.278328225016592
22.903003790878017,120.27334435320056,11.290246444940566
22.902997866337113,120.27333939098672,11.303177627921103
22.90299194502879,120.27333433206474,11.317138901352882
22.902986027564623,120.27332917648633,11.332140052318572
22.902980114294078,120.27332392383776,11.348201878368853
22.902974205566625,120.27331857422249,11.36534395366907
22.9029683018191,120.2733131273819,11.383590745925902
22.90296240313887,120.27330758341944,11.40296672284603
22.90295651022487,120.27330194249026,11.423509809374808
22.90295062342657,120.27329620474951,11.445256707072257
22.902944742918706,120.2732903702489,11.468257574737072
22.90293886913811,120.27328443935045,11.492571134865283
22.902933002434256,120.2732784129333,11.518265897035597
22.902927143331343,120.27327229089403,11.545420157909392
22.902921291567267,120.27326607452554,11.57413545846939
22.90291544819044,120.27325976413812,11.604519456624983
22.902909613288227,120.27325336081778,11.636705501377582
22.902903787122728,120.27324686549542,11.670844069123268
22.90289797039288,120.2732402793605,11.7071027636528
22.902892163273417,120.27323360365418,11.74567610323429
22.902886366201177,120.27322684003136,11.786789190769195
22.902880579350892,120.27321999014694,11.830686703324316
22.90287480350887,120.27321305560412,11.877640232443808
22.902869038937208,120.2732060387818,11.927960518002509
22.902863286072744,120.27319894180032,11.981979097425937
22.902857545527045,120.27319176688346,12.040065433084964
22.90285181756222,120.27318451718585,12.10262446552515
22.9028461031393,120.27317719518986,12.170096613466738
22.90284040217092,120.27316980456729,12.24295655041933
22.902834715705485,120.27316234878309,12.321724215149878
22.9028290445293,120.27315483145733,12.40695257782936
22.902823388817104,120.27314725703756,12.499250884354113
22.90281774952993,120.27313963002305,12.599260188639162
22.902812127585133,120.27313195511991,12.707670480012892
22.902806523681654,120.27312423770655,12.825217013061046
22.902800938867895,120.27311648357514,12.952675414085387
22.902795374104898,120.27310869862123,13.090858010947704
22.90278983026633,120.27310088972301,13.240597929060458
22.9027843089248,120.27309306365521,13.402746644616126
22.90277881051715,120.2730852282786,13.578143399953841
22.902773337358603,120.27307739186769,13.767598076164722
22.902767890584936,120.27306956280039,13.971860608458519
22.902762471550336,120.27306175069579,14.191580614447592
22.902757082526353,120.27305396543159,14.42726579904556
22.90275172521664,120.27304621766119,14.679229348897932
22.9027464017617,120.27303851860687,14.947516529262064
22.90274111430202,120.27303088057694,15.231843514740465
22.902735865633357,120.27302331624172,15.531515422463416
22.90273065850777,120.27301583912482,15.845330888032912
22.90272549593943,120.27300846378421,16.17150621563196
22.90271617412705,120.27300386042482,16.72820893526077
22.902703091683236,120.27300042327774,17.212556976079938
22.9026827476754,120.27299574335342,17.71793378740549
22.90264192856532,120.27299439481783,18.752030825614927
22.902587362365864,120.27299265453667,19.502882350981235
22.90252435479644,120.2729860695912,20.144666627049446
22.902455415980686,120.27297405805179,20.674155139923094
22.902386389098847,120.27295585398478,20.95730767548084
22.90232430681303,120.2729314973146,21.04328230321407
22.902275537096084,120.27290294464869,21.01459881067276
22.902244867056048,120.27287392212082,20.888475123047826
22.902233429113103,120.27284947373306,20.78232687115669
22.902241429213458,120.27283341038098,20.654473316669463
22.902265512021863,120.27282694182144,20.64175010919571
22.9022977039539,120.2728272728529,20.605028975009915
22.902333878932282,120.27283225660628,20.20225871503353
22.902349715865633,120.27284665272545,20.349813666939735
22.902334864630266,120.27287492992829,20.282225297391413
22.902313983904207,120.27291474454206,20.037246054410932
22.902307116584428,120.27295551436853,19.989825192093846
22.90231067817166,120.27299161345022,19.898498253524302
22.902308876835843,120.27302469280716,19.84808376729488
22.90229939909495,120.27305911330437,19.766623431444167
22.90229336776955,120.27309639517321,19.715567891299724
22.90229975155586,120.27313415003277,19.67746555507183
22.902318764525226,120.27316674621102,19.635891251266003
22.902345136909826,120.2731885394172,19.612686078250405
22.902375594123495,120.27319591400794,19.57214186489582
22.902409462652905,120.2731893941724,19.575325113534927
22.902447124161434,120.27317353377815,19.552802589535712
22.902488133207687,120.27315605897846,19.51068143248558
22.902528931174917,120.27314513700887,19.480446687340734
22.902567716465207,120.27314587902409,19.444206343591212
22.902609681526457,120.27315720101373,19.294511690735817
22.90265522558284,120.27317321412411,19.27073642015457
22.902701166417124,120.27318882581812,19.182306458055972
22.90274011455977,120.27320096413828,19.238014532625673
22.902773396942997,120.2732090497666,19.104904091358183
22.9028031574692,120.27321229331639,19.02443102747202
22.902830561397693,120.27321106667442,18.83302138149738
22.90285142755528,120.2732080722386,18.76850737929344
22.90286474938507,120.27320607115576,18.69727209806442
22.902875124757866,120.27320620132389,18.64070520699024
22.902886100255586,120.27320703477226,18.601597248017786
22.902897874638487,120.27320724458238,18.580666348338127
22.90290834270782,120.27320608082657,18.635953578352925
22.902920999324166,120.27320271869294,18.662974490225313
22.902940335945125,120.27319662783817,18.68694794923067
22.90296550362415,120.27318841426549,18.658326849341393
22.902984064424853,120.27318188584516,18.650964516401288
22.902984454955995,120.27318117568674,18.65956002175808
22.902970151206848,120.27318835148277,18.544706159830092
22.90295482229161,120.27320123011154,18.459661304950714
22.902949113722286,120.27321349916869,18.362539190053937
22.902950335639193,120.27321978535322,18.448999501764774
22.902955125455605,120.2732175965945,18.500850242376327
22.902962772701898,120.27320925595664,18.53632841706276
22.902972820447893,120.27319654923048,18.564029531180857
22.902984866629986,120.27318132897173,18.586334292590617
22.902997751449316,120.27316507419442,18.60506309866905
22.90301023778709,120.27314920749086,18.620876577496528
22.903021519768757,120.27313511406301,18.634339933097362
22.90303126033187,120.27312380065814,18.645663587749002
22.90303926822974,120.27311597422833,18.654996794462203
22.903045547655992,120.27311179007549,18.662978160381314
22.903050568733242,120.27311017375658,18.66887854784727
22.903054447485058,120.27311070989205,18.67244960963726
22.903057308322254,120.27311287031063,18.673691345751283
22.903059387660328,120.27311583894037,18.672307696938514
22.903060994866347,120.2731190314986,18.668321907520294
22.903062828877477,120.27312187109794,18.66152600198984
22.90306651515947,120.27312409569556,18.65156519860029
22.903074784896674,120.27312643417089,18.637411853671072
22.903084884276655,120.27312677802782,18.617539182305336
22.903089861495598,120.2731249595527,18.590559865534303
22.903090086553366,120.2731246742378,18.55619864165783
22.903087700032405,120.27312594866498,18.51663558334112
22.90308379000315,120.27312826231683,18.476071795821188
22.90307872952332,120.27313144039469,18.440779575705527
22.903072687560968,120.27313532723464,18.41638527214527
22.903065854052276,120.27313963990073,18.40564150214195
22.90305845571498,120.27314404736148,18.40819103717804
22.903050657672996,120.2731483123458,18.42208624780178
22.90304247425453,120.27315235081585,18.44441914707422
22.903033756061763,120.27315630804071,18.473468431830405
22.90302428432736,120.2731603787813,18.507684072852133
22.903013965044273,120.2731645322668,18.546395654976365
22.90300299304124,120.27316813099924,18.588877710700032
22.902991812580197,120.27317012080809,18.63493327498436
22.902980767276127,120.27316977369308,18.6843666061759
22.902969781381717,120.27316743945843,18.736948931217192
22.90295830596919,120.27316458806793,18.792137067019937
22.902945594661013,120.27316315394303,18.849126026034355
22.902931165714744,120.27316449466957,18.907141405344007
22.902915177177555,120.27316858919933,18.965597203373907
22.90289843221561,120.2731739952363,19.02407502233982
22.902881861289025,120.27317879278772,19.082347312569617
22.902865988425937,120.2731816596412,19.14027093797922
22.902850765661782,120.27318231979064,19.19781286716461
22.90283586108877,120.27318114745003,19.25514804422855
22.902820946293804,120.27317865656887,19.313202571868896
22.902805716147125,120.27317538007625,19.3734065875411
22.902790042568494,120.2731715712234,19.43681342601776
22.9027738588531,120.27316735692035,19.50371302962303
22.902757253460173,120.27316261025709,19.573896199464798
22.90274022250188,120.27315735031662,19.647588038444518
22.902722770215522,120.27315159256194,19.724945139884948
22.902704908220937,120.27314535090453,19.806027449667454
22.90268665582626,120.27313863646323,19.89075177758932
22.902668040901606,120.27313146051206,19.97882940471172
22.902649099748032,120.27312383391127,20.069702467322347
22.90262987753435,120.27311576912433,20.162485234439373
22.90261042969501,120.27310728006273,20.255874800682065
22.902590821711694,120.2730983834306,20.348105821013448
22.902571129550132,120.27308909872471,20.436877107620237
22.90255006978695,120.27307953082429,20.57482114434242
22.9025281839674,120.27306966488695,20.676633718609807
22.902505878698186,120.27305984911372,20.75633482635021
22.90248400904156,120.27305012223958,20.771477890014648
22.902462927873426,120.27304054808158,20.781813049316405
22.90244379208769,120.27303071581107,20.762696430087086
22.90243006264648,120.2730204674887,20.628603610396382
22.9024197336438,120.27301018006933,20.538268837332723
22.902408886706837,120.27300029634183,20.447417795658108
22.90239247280085,120.27299160840795,20.474611204862594
22.90237393098066,120.27298335685018,20.409287321567533
22.90235976557739,120.27297431352679,20.351751509308812
22.902354755355507,120.27296260188606,20.27786148190498
22.90235646456267,120.27294871811318,20.25050046890974
22.90235821291031,120.27293480305238,20.24231969118118
22.902358155510097,120.27292354855157,20.13009366095066
22.902355686449024,120.27291538136778,20.163276764750478
22.90235461576465,120.27290766165308,20.170237827301023
22.90235829483885,120.27289770156752,20.230792954564095
22.902367504733917,120.27288423260535,20.21538563966751
22.902378339264747,120.27286881163842,20.218304637074468
22.902383930150524,120.27285370691229,20.311773723363874
22.902389276626707,120.27283925331123,20.284957116842268
22.902403891533947,120.27282506446812,20.268568646907806
22.90243198959441,120.2728107511068,20.21296333670616
22.902466057495648,120.27279741642415,20.186237260699272
22.90249632863914,120.27278555038656,20.153134900331494
22.902519857747336,120.27277451859891,20.12685413658619
22.90253857139686,120.2727654865366,20.103637953102588
22.902554966278647,120.27276039632669,20.09038746654987
22.902574304909052,120.27276030157081,19.974327346682546
22.90259836630159,120.27276437465152,20.004826343059538
22.902627854329666,120.27276978006792,19.990847942233085
22.90266016986437,120.27277540938694,19.993451306223868
22.90268982323477,120.2727815836848,19.95902279615402
22.90271181118651,120.27279003257632,19.936759629845618
22.902723311586044,120.27280196959357,19.994077679514884
22.902730935330574,120.27281590802981,19.93371584713459
22.902741046024598,120.27282989175599,19.904270185530184
22.902753308309325,120.27284240894453,19.812647187709807
22.90275569277716,120.2728564772386,19.8317809343338
22.902738898714883,120.27287582859002,19.82441615462303
22.90270603512607,120.27290272775352,19.916395157575607
22.90267842470533,120.27293451804779,19.845491413772105
22.902674340597038,120.27296671942925,19.805114804208277
22.902694121960455,120.27299545012606,19.639844009280203
22.902716309327708,120.27302043888999,19.620340800285337
22.90272383648786,120.2730435797009,19.541470371186733
22.902720114123234,120.27306552438205,19.52600922733545
22.90272275047055,120.27308307820314,19.443153008818626
22.902741026454358,120.27309290323346,19.40813972055912
22.90276609331169,120.27309508470027,19.381731724739073
22.90278331534193,120.2730943295493,19.36510591804981
22.902788317373144,120.27309479131776,19.347379064559934
22.90279010621546,120.27309678510872,19.31669900715351
22.90279834201053,120.2730975386048,19.31252236962318
22.9028133636992,120.27309496653017,19.30851700603962
22.902827448681013,120.27308994132675,19.322152858972547
22.902835346933117,120.2730851456371,19.32025171816349
22.90283941798002,120.27308232232815,19.317951753735542
22.902845099465523,120.27308101009689,19.317271551489828
22.902852754225393,120.27307861157976,19.32597716152668
22.902857426532993,120.2730731794264,19.36122411638498
22.902855848420234,120.27306310605785,19.38318755328655
22.902851337130283,120.27304730694655,19.451601707935332
22.902849611978617,120.27302438740077,19.51166258752346
22.902850572318286,120.27299574032806,19.606905582547185
22.902845943781625,120.27296711132995,19.668829677999017
22.902828476031285,120.27294484802908,19.734037339687347
22.902801556990454,120.27293160193523,19.78650956004858
22.902779490320913,120.27292436995022,19.840496331453323
22.90277430486238,120.27291856004037,19.882815676927564
22.90278433124711,120.27291167907488,19.884080657362937
22.90279333801356,120.27290620242026,19.9058569163084
22.902787003982837,120.27290679952841,19.9293716058135
22.902766081779227,120.27291642984954,19.99448506683111
22.902745579724222,120.27293293275824,20.035021939873694
22.90273841430774,120.27295113028323,20.08410048931837
22.902742072719615,120.27296716332997,20.139462345838545
22.90274220875026,120.27298350413616,20.176425710320473
22.902728627658462,120.27300572068614,20.19124335348606
22.902708378706077,120.27303715419458,20.126797860860822
22.902698551168974,120.27307351231963,20.101799204945564
22.902709786977105,120.27310697861257,20.042460122704504
22.902734828104816,120.2731319321582,19.998858669400214
22.9027552631929,120.27314866287404,19.908942294120788
22.902759619493537,120.27316184047059,19.83883497416973
22.902752609546894,120.27317519565848,19.78757268190384
22.902748461616902,120.27318965647385,19.732933846116065
22.902754878559044,120.2732032703948,19.67910122126341
22.90276712638451,120.2732146273959,19.612101300060747
22.90277582946276,120.27322393661497,19.557163958251476
22.90277776053879,120.27323267923808,19.497990033030508
22.902777798805598,120.27324144482292,19.426419544219968
22.90278107267098,120.27325011411334,19.363257382810115
22.90278766727421,120.27325816643682,19.29536561369896
22.902793797957898,120.27326588938374,19.239804345369336
22.90279691561082,120.27327330131314,19.18229055404663
22.902797604326032,120.2732801620061,19.137152528762815
22.90279791115945,120.27328572758567,19.093716232478616
22.902798726076504,120.2732901449241,19.069411236047742
22.902799722760907,120.27329432737034,19.056470265984533
22.902801332937408,120.27329953290601,19.008917278051374
22.902802815514193,120.27330630568248,18.986996659636496
22.90280375960357,120.2733145850891,18.971797320246694
22.902803658912937,120.27332424819792,19.033257752656937
22.90280452983233,120.27333483484365,19.079698683321475
22.90280786786888,120.27334611773632,19.1244378849864
22.90281293944434,120.2733578270757,19.16793657392263
22.902818708471724,120.27337052852687,19.209340827167033
22.90282472116608,120.27338506929453,19.2485931456089
22.90283096250026,120.27340203997069,19.285632359981534
22.902837422427037,120.273421432436,19.320741072297096
22.902843869161373,120.27344257299151,19.35420922487974
22.90284994406114,120.2734643734896,19.386210538446903
22.90285534684545,120.27348556788104,19.41679761856794
22.90285993292168,120.27350488944427,19.445999826490876
22.902863702901396,120.27352128235391,19.473806151747702
22.902866765818803,120.27353414950181,19.500219041109084
22.902869287846205,120.27354347340811,19.525229930877686
22.90287144529051,120.27354963149314,19.548873075842856
22.902873375056032,120.2735531175373,19.571208421885967
22.902875140920788,120.27355435695303,19.592215171456335
22.902876724013474,120.27355376263752,19.611911675333975
22.902878035394334,120.27355174635028,19.630213519930837
22.902878958952435,120.27354870681847,19.647057089209554
22.902879377091597,120.2735449005514,19.662205046415327
22.902879189514334,120.2735404344969,19.675209632515905
22.902878307630363,120.27353528124569,19.685317242145537
22.902876634636883,120.27352935453618,19.691551613807675
22.90287407547844,120.27352258734498,19.69304781407118
22.90287057065801,120.27351502890535,19.68914521485567
22.90286621977414,120.27350694906917,19.680291575193404
22.902861313672055,120.27349883468699,19.668188624083996
22.90285626454995,120.27349123053077,19.656061205267903
22.902851404402984,120.27348448630129,19.647022834420202
22.9028468870847,120.27347863788918,19.643222999572753
22.902842717487655,120.27347349813574,19.64544956088066
22.9028388311349,120.27346881110054,19.65346762835979
22.902835153764357,120.27346434271882,19.66639881134033
22.902831620112767,120.27345990950371,19.682934087514877
22.90282818649656,120.27345536763416,19.701703265309334
22.90282482618139,120.27345060318072,19.72147806584835
22.902821520820154,120.27344552864064,19.741258983314037
22.90281826438452,120.27344008071402,19.76038416624069
22.902815055957134,120.27343422009704,19.77845356762409
22.90281190257105,120.27342792139734,19.795348519086836
