Latitude,Longitude,Altitude (m)
22.904515722881406,120.27497975894235,18.52260721933842
22.904517345881267,120.2749819130238,18.525394655883314
22.904518951571557,120.27498404968264,18.52817740273476
22.904520541091067,120.27498616938142,18.53096425306797
22.904522113528767,120.27498827273688,18.533746999919416
22.904523670251198,120.27499035820718,18.536532677829268
22.90452521034733,120.27499242671742,18.53931366604567
22.904526733361653,120.27499447857598,18.542096999108793
22.904528240432953,120.27499651224102,18.544878573536874
22.90452973019468,120.27499852956272,18.547660147964958
22.90453120378563,120.27500052899927,18.550441136181355
22.904532660978038,120.27500251055068,18.553220951974396
22.90453409994985,120.27500447560458,18.55599900913239
22.90453552320639,120.27500642246497,18.558778238713742
22.904536929153366,120.27500835174855,18.56155688208342
22.904538318018528,120.27501026360954,18.56433318060637
22.904539691168424,120.27501215758538,18.567109479129318
22.904541046553238,120.27501403367607,18.56988343280554
22.904542383945206,120.27501589157325,18.572658558905125
22.90454370562191,120.27501773173945,18.575430167734623
22.90454501044456,120.27501955463723,18.578205293834213
22.90454629704661,120.27502135903313,18.580978075087074
22.904547567477877,120.27502314508133,18.58374851149321
22.904548820144065,120.27502491324438,18.5865171892643
22.904550055728436,120.27502666275137,18.589288211882117
22.904551274230997,120.2750283945274,18.592056303441527
22.90455247474072,120.27503010703062,18.594823222577574
22.9045536588519,120.27503180211124,18.59759014171362
22.904554825425752,120.27503347838162,18.600354716002943
22.904555974690037,120.27503513615011,18.603119876503946
22.904557105733723,120.27503677541674,18.60588503700495
22.904558220151113,120.27503839571892,18.608649611294272
22.904559316803418,120.27503999829014,18.611411254525187
22.904560395690638,120.27504158066347,18.61417172533274
22.904561456812775,120.27504314515166,18.616932782351974
22.904562500625342,120.27504469082959,18.6196909083128
22.904563527811614,120.2750462175431,18.622451379120353
22.904564536094014,120.27504772513801,18.625207746446137
22.90456552683909,120.27504921330593,18.627961768925193
22.904566500502348,120.27505068297198,18.630718136250977
22.904567455717256,120.27505213321105,18.633472158730033
22.904568392939318,120.27505356402314,18.636224422574045
22.904569312851812,120.27505497571663,18.638974927783014
22.90457021499922,120.2750563682915,18.641727191627027
22.90457109915379,120.27505774174777,18.644477696835995
22.90457196531552,120.27505909485197,18.647224684774876
22.90457281302889,120.27506042883755,18.64997225892544
22.904573643204934,120.27506174324198,18.65271866065264
22.904574455615894,120.27506303821944,18.655462131321432
22.904575249578496,120.27506431330737,18.65820677441359
22.9045760253205,120.27506556865997,18.6609496588707
22.90457678352518,120.27506680396885,18.663690198481085
22.9045775232815,120.27506802000497,18.66643132430315
22.90457824436171,120.27506921599736,18.669169519066813
22.904578947676832,120.27507039117513,18.671905368983747
22.904579632771355,120.2750715472343,18.67464414995909
22.90458029987304,120.2750726829414,18.677379999876024
22.904580947843094,120.27507379891317,18.680113504946235
22.90458157759255,120.27507489360777,18.68284642380476
22.904582189121403,120.27507596887538,18.68557934266329
22.904582783112932,120.27507702363677,18.68830933046341
22.904583357517318,120.27507805820025,18.691036973416807
22.904583914156618,120.27507907194912,18.693764030158523
22.90458445143653,120.27508006519174,18.696489914476874
22.904584970723604,120.27508103823648,18.69921228152514
22.90458547156232,120.27508199062078,18.701936407208446
22.904585953724922,120.27508292219046,18.704658188045027
22.90458641743917,120.27508383294554,18.707378210246564
22.904586862249545,120.27508472288599,18.710099404871467
22.90458728770053,120.27508559201183,18.71281766843796
22.90458769515868,120.27508644063141,18.715532414734366
22.90458808394071,120.27508726766548,18.718248919665815
22.90458845381887,120.27508807373074,18.72096249353886
22.904588805020918,120.27508885928975,18.7236760674119
22.904589137091335,120.27508962372578,18.72638671022654
22.90458945025788,120.2750903664221,18.729096180617812
22.904589744520557,120.275091088458,18.731800961315635
22.904590020334872,120.27509178829162,18.73451043170691
22.904590276562047,120.27509246731064,18.737212867558004
22.904590513657592,120.27509312505249,18.739917648255826
22.90459073344357,120.27509376120882,18.74262125653029
22.90459093182034,120.2750943759338,18.74531783026457
22.904591112659787,120.27509496845653,18.74801674884558
22.904591273456575,120.27509553985627,18.75071566742659
22.904591415577247,120.27509608936212,18.753413413584234
22.904591538794048,120.27509661759082,18.756105297625066
22.904591642423703,120.27509712330888,18.75879835408926
22.904591726238458,120.27509760744142,18.761491410553457
22.904591792060373,120.27509806968007,18.764182122170926
22.904591837384114,120.27509851002483,18.766866385459902
22.904591864259498,120.27509892785896,18.769555338442327
22.904591871775494,120.27509932379921,18.772241360366348
22.904591858337803,120.2750996975372,18.774923865020277
22.90459182759054,120.2751000493813,18.777604024827482
22.904591776572865,120.27510037809803,18.780283012211324
22.904591705740284,120.27510068522925,18.782964344441893
22.90459161554832,120.27510096954148,18.785643331825735
22.90459150576921,120.27510123165146,18.788314112246038
22.904591376858473,120.2751014712508,18.790990168571476
22.904591228588348,120.27510168803117,18.79366212141514
22.90459105982005,120.2751018824551,18.79633231562376
22.904590871692363,120.27510205344332,18.799004268467428
22.904590664888566,120.27510220269183,18.80167035919428
22.90459043690332,120.2751023285046,18.804331760227683
22.90459018933093,120.27510243134422,18.806999023377898
22.904589922399154,120.27510251198159,18.80966511410475
22.904589635652474,120.2751025687207,18.812324170291426
22.904589329318654,120.27510260310335,18.814980881631378
22.90458900316993,120.27510261374194,18.817636420547963
22.90458865697855,120.27510260171572,18.82029137325287
22.904588290516752,120.27510256656214,18.822948670804504
22.904587904695568,120.2751025075103,18.825601864874365
22.904587498831724,120.27510242563947,18.828249783039094
22.904587072469706,120.27510232017876,18.830898287415508
22.904586626520544,120.27510219128233,18.83354386073351
22.90458615984545,120.27510203864182,18.836192951321603
22.904585673583213,120.27510186256558,18.838833834946158
22.904585167278317,120.27510166305363,18.841476477205756
22.904584640703003,120.2751014399518,18.84411794704199
22.904584093629516,120.27510119218078,18.846755313396457
22.904583527424403,120.27510092112823,18.849393265962604
22.90458294003784,120.27510062663997,18.852028287470343
22.904582332153105,120.2751003077909,18.854659205496315
22.904581704453467,120.27509996488936,18.857291295945647
22.904581056255658,120.27509959793541,18.859920455336574
22.904580387559673,120.27509920708317,18.862547269880775
22.9045796995043,120.27509879217851,18.86517584306002
22.904578990039724,120.27509835275885,18.867801485180856
22.90457826030473,120.27509788882419,18.870422437608244
22.90457751075484,120.27509740145382,18.873046321094037
22.904576740479015,120.27509688848917,18.875666101098062
22.904575948793987,120.27509635162627,18.878281777620316
22.9045751370663,120.27509579024839,18.88089686793089
22.904574305068195,120.27509520389296,18.88351019960642
22.904573452116402,120.27509459348508,18.886124703705313
22.904572578438678,120.27509395763713,18.888734518110756
22.904571683807262,120.27509329789089,18.891344332516194
22.904570768905433,120.27509261301294,18.893951802074913
22.90456983350543,120.27509190269492,18.89655575436354
22.90456887692398,120.27509116817026,18.89916087907553
22.904567900072113,120.27509040805134,18.901763072729114
22.904566901583287,120.27508962295487,18.904363507747654
22.904565883279556,120.27508881303505,18.906961597919466
22.904564843338868,120.27508797782933,18.90955499839783
22.904563782672245,120.27508711733769,18.912150157511235
22.904562701051933,120.2750862312518,18.914744730412963
22.90456159802242,120.27508531972582,18.917334613621236
22.90456047540576,120.27508438353067,18.919926255464556
22.90455933024111,120.2750834211245,18.922514380037786
22.904558164350526,120.27508243312408,18.925098401129247
22.90455697818953,120.27508141999195,18.927684767067433
22.90455577039157,120.27508038111135,18.930264098465443
22.904554541412164,120.27507931632813,18.932842843651773
22.90455329125131,120.27507822595064,18.93542510610819
22.904552019681255,120.27507710951633,18.938001506447794
22.904550726929752,120.27507596671684,18.940576148152353
22.90454941322456,120.27507479863145,18.943151376068595
22.904548078337925,120.27507360433506,18.945722500503066
22.90454672113105,120.27507238367349,18.948292452514174
22.90454534410928,120.27507113680092,18.950863576948645
22.904543943856243,120.27506986387154,18.9534288392663
22.904542523788304,120.27506856457698,18.95599468779564
22.904541081400133,120.27506723907142,18.958559363901617
22.904539617602758,120.27506588720068,18.961118764102462
22.904538133534963,120.27506450850221,18.96367992293835
22.904536626235906,120.27506310343857,18.966236392080788
22.90453509843868,120.27506167247229,18.968793447434905
22.904533548548972,120.27506021406155,18.971346399307254
22.9045319770223,120.27505872913146,18.973900523602964
22.904530383858674,120.2750572169111,18.976450544416906
22.90452876928584,120.27505567878809,18.97900115144253
22.904527132392772,120.27505411275808,18.981547068774702
22.904525473862744,120.27505252005453,18.98409591716528
22.904523794379028,120.27505090113998,18.98663597238064
22.904522092119564,120.27504925431843,18.98918071728945
22.90452036867865,120.27504758082334,18.991721944928173
22.90451862337302,120.27504587957542,18.99426082772017
22.90451685597491,120.27504415103724,18.99679912430048
22.904515066712083,120.27504239551713,18.999334489822388
22.90451325444575,120.27504061209002,19.001868096709252
22.90451142122573,120.27503880168102,19.004396427690985
22.904509566140987,120.27503696382755,19.006932379424573
22.904507688052743,120.27503509837544,19.00945895177126
22.904505788327533,120.27503320455378,19.01198669654131
22.904503866737606,120.27503128405858,19.01451385509968
22.904501922827446,120.27502933488547,19.017033979117873
22.90449995659705,120.27502735857627,19.01955703419447
22.904497968501936,120.2750253538975,19.02208067548275
22.90449595785883,120.27502332131175,19.024597282230857
22.90449392512325,120.2750212606648,19.027115647614004
22.904491869384163,120.27501917180248,19.029634012997153
22.904489791780357,120.27501705487899,19.032147102475168
22.904487691856318,120.2750149098943,19.03465784710646
22.904485568701013,120.27501273592334,19.03716859173775
22.904483424136505,120.27501053512465,19.03967933636904
22.90448125656849,120.27500830472295,19.04218597751856
22.904479066908,120.27500604564332,19.044690860033036
22.904476854244002,120.2750037588109,19.047195742547515
22.904474619715288,120.27500144299218,19.04969652158022
22.904472362183064,120.27499909880392,19.052197300612928
22.90447008141958,120.27499672562936,19.054696907222272
22.904467778108103,120.27499432346855,19.057195341408256
22.904465452704148,120.27499189293816,19.059693775594237
22.904463104524446,120.27498943326734,19.062186933875086
22.904460732657963,120.27498694430184,19.064680092155935
22.904458338243494,120.27498442650428,19.067172664225104
22.90445592105327,120.27498187941205,19.069662891447546
22.904453481542816,120.27497930333355,19.072150773823264
22.904451018117825,120.27497669811459,19.07463865619898
22.904448532600355,120.27497406360098,19.077121848881248
22.904446024079384,120.27497139963855,19.07960445535183
22.90444349164387,120.2749687060731,19.082087061822417
22.904440937115886,120.27496598321301,19.08456908208132
22.90443835912888,120.27496323074992,19.08704934370518
22.90443575791061,120.27496044868381,19.089524329423906
22.904433133233315,120.27495763716888,19.092003418624405
22.904430485552513,120.27495479528002,19.094478404343132
22.904427814412696,120.27495192394235,19.096951631426812
22.904425120724884,120.27494902284748,19.09942251366377
22.904422402894777,120.2749460921496,19.101892809689048
22.904419662744438,120.27494313061526,19.104359002232552
22.90441689799629,120.27494013947789,19.106827539622785
22.904414110927906,120.27493711842916,19.109293732166293
22.904411299261717,120.27493406654398,19.111758166074754
22.904408464819777,120.27493098490159,19.11421966892481
22.904405606463303,120.2749278727311,19.11668293040991
22.904402724875563,120.27492473018668,19.119141502201558
22.90439981891777,120.27492155680581,19.121599487781527
22.904396890867506,120.27491835382192,19.124058645784856
22.904393937763913,120.27491511969319,19.126512527883055
22.90439096142906,120.274911854728,19.12896875482798
22.904387961407426,120.27490855954308,19.131422636926175
22.9043849372435,120.27490523383005,19.133871829330925
22.904381889620552,120.2749018769722,19.136319849312308
22.90437881785531,120.2748984889695,19.13876786929369
22.904375721720015,120.27489506982198,19.141217061698438
22.904372601897943,120.27489161999216,19.143665081679824
22.904369458844606,120.27488813932588,19.146106067121032
22.90436629142122,120.27488462766895,19.148549983620647
22.90436309917227,120.27488108425047,19.1509927276969
22.90435988369205,120.27487750953297,19.15343136829138
22.904356643158508,120.274873903979,19.15587411236763
22.904353379165947,120.27487026650928,19.158307477056983
22.904350090575576,120.27486659804892,19.16074435901642
22.904346778753943,120.27486289782698,19.163178309917452
22.904343441423467,120.27485916599768,19.165613433241845
22.904340080406218,120.27485540256099,19.16804445308447
22.904336694791155,120.27485160751692,19.17047723156214
22.90433328412277,120.27484778055712,19.17290532034636
22.90432984976761,120.27484392183575,19.175334581553937
22.904326390131367,120.274840031507,19.177761497914794
22.904322906808343,120.27483610864577,19.180187828063968
22.904319399115266,120.27483215448554,19.182610640943054
22.904315865685597,120.274828167947,19.185032867610456
22.904312307885874,120.27482414903018,19.187455094277862
22.904308725260588,120.27482009773507,19.189876734733584
22.904305118493006,120.27481601483258,19.192296030342582
22.904301486899858,120.27481189986017,19.194714153528217
22.904297829797873,120.274807751276,19.197126414597037
22.904294148553593,120.27480357123864,19.19954395157099
22.904290441800473,120.27479935836044,19.201957971274854
22.904286710221786,120.27479511310395,19.204369646131994
22.904282954045293,120.2747908351608,19.206781320989133
22.90427917235996,120.274786524531,19.209191823422913
22.90427536516579,120.27478218090617,19.211603498280052
22.904271533829327,120.27477780505724,19.21401048344374
22.904267676528505,120.27477339559655,19.216416296184065
22.904263794174366,120.27476895391177,19.218822108924392
22.904259887222413,120.27476447923196,19.221225576817993
22.904255953850594,120.27475997155713,19.22362845849991
22.904251995197694,120.27475543027055,19.226030167758466
22.904248011719226,120.27475085629732,19.22843070459366
22.90424400273192,120.2747462488665,19.230830655217172
22.904239967552506,120.27474160874905,19.23322474372387
22.904235908003038,120.27473693501985,19.23562293571234
22.90423182135043,120.27473222737052,19.238020541489128
22.904227710555524,120.27472748718873,19.240411112725738
22.904223573568512,120.27472271293263,19.242805201232436
22.904219410161627,120.27471790506479,19.245194013834002
22.904215221929178,120.2747130643561,19.247585757493976
22.904211007049106,120.27470818911058,19.249975742518902
22.90420676666019,120.27470328133258,19.252362210273745
22.904202500306923,120.27469833870937,19.254748678028587
22.90419820821706,120.2746933626286,19.257133387148382
22.90419388970733,120.27468835231934,19.259520441114905
22.904189545461,120.27468330870671,19.261902805387976
22.904185175022562,120.27467823117397,19.264283411026003
22.904180778847525,120.27467311941272,19.266662844240667
22.90417635556935,120.27466797403974,19.26904169124365
22.90417190632682,120.27466279412992,19.271417020976546
22.90416743089218,120.27465757983744,19.27379586797953
22.904162929493182,120.27465233162484,19.2761688528657
22.90415840076329,120.27464704902958,19.27854359638691
22.904153846524558,120.2746417325142,19.2809159950614
22.904149264954928,120.27463638146199,19.283287807524207
22.904144658331973,120.2746309960271,19.285656688928608
22.90414002346709,120.27462557636375,19.288024397909645
22.904135362410095,120.27462012170099,19.29038800340891
22.904130674705478,120.27461463296395,19.292755126178267
22.90412596035323,120.27460910938169,19.295118731677533
22.904121219353357,120.27460355110841,19.29748116475344
22.904116451250346,120.27459795845246,19.299843011617664
22.904111656271947,120.27459233125968,19.302200168788435
22.90410683396265,120.2745866690675,19.304559670805933
22.90410198523349,120.27458097203012,19.30691858661175
22.904097109173424,120.27457524014753,19.30926988166571
22.904092206465737,120.2745694735739,19.311624107778073
22.90408727619939,120.2745636720009,19.31397481662035
22.904082317918874,120.2745578354285,19.316324939250947
22.904077333446246,120.27455196354833,19.31867271703482
22.904072321414965,120.2745460574397,19.321018736183646
22.904067282052782,120.27454011571494,19.323367100179198
22.904062214904187,120.27453413914498,19.325708429634574
22.904057120196935,120.27452812726726,19.32804975908995
22.904051998386542,120.27452208054433,19.330390502333643
22.904046848789736,120.27451599866782,19.332726555883887
22.90404167208979,120.2745098811752,19.335060850799085
22.904036466920157,120.2745037286832,19.33739631813765
22.904031234419627,120.27449754072924,19.339729440629483
22.904025973449407,120.27449131777591,19.34205728721619
22.904020685831565,120.27448505920644,19.344386306226255
22.904015368605247,120.27447876532923,19.346711221754553
22.90401002495906,120.27447243660681,19.349034964859488
22.904004653298703,120.27446607211408,19.35135694932938
22.903999252940903,120.27445967185105,19.353673657894138
22.903993824113417,120.27445323643445,19.355990952670577
22.90398836818279,120.27444676555591,19.35830531638861
22.90398288241593,120.27444025936961,19.36061850768328
22.903977369318174,120.27443371710466,19.36292818170786
22.90397182775073,120.27442713999449,19.365235510885718
22.903966257485845,120.27442052695983,19.367538736581803
22.903960659662303,120.27441387861742,19.369838445007804
22.903955032230286,120.27440719481307,19.372139912068846
22.903949376328583,120.27440047477587,19.37443317216635
22.90394369241271,120.27439371989347,19.376727604687215
22.90393797934388,120.2743869289324,19.379017347514633
22.90393223780536,120.2743801023552,19.38130474549532
22.903926467569402,120.27437324077862,19.383586281359197
22.903920667724968,120.27436634312336,19.38586547237635
22.90391483986636,120.27435941016036,19.388143490970137
22.90390898262704,120.2743524411187,19.390418578505518
22.903903096462518,120.27434543661508,19.392690734982494
22.90389718046176,120.27433839680371,19.394958201766016
22.90389123644684,120.27433132122204,19.397220392644407
22.903885262140168,120.27432421002425,19.399480824887753
22.903879258908297,120.27431706305616,19.401734222590925
22.90387322697898,120.27430988062613,19.403986447870732
22.90386716498568,120.27430266273417,19.40623750072718
22.903861073839415,120.2742954090719,19.408482691466812
22.90385495331244,120.27428812025606,19.410719675242902
22.90384880226596,120.27428079566991,19.41295490038395
22.90384262297755,120.27427343546765,19.415190125525
22.903836412941878,120.27426603995762,19.417415971279148
22.903830173069977,120.27425860883149,19.419637713551523
22.903823904272873,120.27425114239759,19.42185593855381
