Latitude,Longitude,Altitude (m)
0.6565544,-69.65622,12908.217
0.6645439,-69.66353,12908.154
0.6725351,-69.670845,12908.095
0.68051976,-69.67815,12908.031
0.6885109,-69.68547,12907.969
0.69649386,-69.69278,12907.906
0.70448506,-69.70009,12907.845
0.7124713,-69.707405,12907.781
0.72046244,-69.714714,12907.718
0.72845036,-69.72203,12907.654
0.73643494,-69.72933,12907.595
0.74442613,-69.73665,12907.532
0.7523386,-69.7441,12907.317
0.7601723,-69.75165,12907.095
0.7679208,-69.75922,12906.959
0.77561677,-69.76679,12906.901
0.7831865,-69.7741,12907.484
0.7908169,-69.78161,12907.763
0.79847187,-69.78925,12907.899
0.8061252,-69.796875,12908.102
0.8137376,-69.80443,12908.492
0.8213614,-69.812004,12908.844
0.82905084,-69.81974,12908.885
0.83679116,-69.82765,12908.57
0.844515,-69.8355,12908.329
0.8521782,-69.84319,12908.333
0.85972494,-69.85053,12909.053
0.8672061,-69.85764,12910.285
0.8747463,-69.86493,12911.325
0.8823882,-69.872475,12912.003
0.8901039,-69.8802,12912.406
0.897854,-69.88802,12912.645
0.9056139,-69.89586,12912.802
0.91338044,-69.90368,12912.918
0.9211371,-69.91148,12913.019
0.92889214,-69.91927,12913.112
0.9366455,-69.92705,12913.208
0.9443923,-69.93481,12913.302
0.95213753,-69.942566,12913.396
0.9598794,-69.95032,12913.492
0.9676263,-69.95807,12913.587
0.97536653,-69.96581,12913.681
0.9831166,-69.973564,12913.775
0.9908552,-69.98131,12913.872
0.99859387,-69.98906,12913.965
1.0063423,-69.9968,12914.061
1.0140777,-70.00455,12914.155
1.0218245,-70.01229,12914.251
1.0295615,-70.020035,12914.347
1.0373034,-70.02778,12914.441
1.0450486,-70.03552,12914.535
1.0527872,-70.043274,12914.63
1.0605291,-70.05102,12914.726
1.0682677,-70.05876,12914.821
1.0760096,-70.0665,12914.914
1.0837516,-70.07424,12915.013
1.0914918,-70.081985,12915.105
1.0992304,-70.08972,12915.198
1.1069708,-70.09747,12915.295
1.114711,-70.10521,12915.389
1.1224545,-70.112946,12915.484
1.1301882,-70.12068,12915.578
1.1379269,-70.128426,12915.676
1.1456687,-70.13617,12915.769
1.1534123,-70.143906,12915.865
1.1611493,-70.15164,12915.958
1.1688846,-70.159386,12916.054
1.1766233,-70.16712,12916.15
1.1843652,-70.17486,12916.242
1.1921022,-70.182594,12916.338
1.1998441,-70.19033,12916.435
1.2075795,-70.19807,12916.53
1.2153181,-70.2058,12916.621
1.2230583,-70.21354,12916.717
1.230792,-70.221275,12916.81
1.2385291,-70.229004,12916.906
1.2462693,-70.23675,12917.004
1.2540014,-70.24448,12917.099
1.2617433,-70.252205,12917.192
1.269477,-70.25994,12917.285
1.2772124,-70.26767,12917.379
1.284951,-70.275406,12917.477
1.2926879,-70.283134,12917.572
1.3004249,-70.29087,12917.667
1.308162,-70.29861,12917.762
1.3158891,-70.30633,12917.855
1.3236277,-70.314064,12917.951
1.3313696,-70.32179,12918.045
1.3391,-70.32952,12918.141
1.3468337,-70.33725,12918.236
1.354579,-70.34498,12918.327
1.3623077,-70.35271,12918.425
1.3700414,-70.360435,12918.518
1.3777784,-70.368164,12918.614
1.3855138,-70.375885,12918.709
1.3932458,-70.38362,12918.804
1.4009844,-70.39134,12918.896
1.4087181,-70.39907,12918.991
1.4164503,-70.40679,12919.085
1.4241823,-70.41452,12919.18
1.4319143,-70.42224,12919.277
1.439671,-70.43004,12919.222
1.447303,-70.43748,12919.888
1.4549531,-70.44498,12920.465
1.4626737,-70.45266,12920.715
1.4703959,-70.46039,12920.922
1.4781805,-70.46828,12920.774
1.4859618,-70.476166,12920.578
1.4936233,-70.48373,12921.01
1.5012751,-70.49123,12921.508
1.508912,-70.49869,12922.16
1.5165292,-70.5061,12922.968
1.5242269,-70.51375,12923.355
1.5320705,-70.521805,12922.923
1.5399452,-70.53,12922.145
1.547756,-70.538,12921.607
1.5554947,-70.545815,12921.312
1.5631939,-70.553505,12921.18
1.5708817,-70.56115,12921.14
1.5785531,-70.568794,12921.142
1.5862343,-70.57644,12921.167
1.5939156,-70.58409,12921.197
1.6015952,-70.59176,12921.23
1.609278,-70.599434,12921.266
1.6169691,-70.60712,12921.299
1.6246502,-70.6148,12921.332
1.6323365,-70.62248,12921.368
1.6400193,-70.630165,12921.4
1.647712,-70.63785,12921.433
1.6554015,-70.64553,12921.468
1.6630893,-70.65321,12921.5
1.6707754,-70.6609,12921.533
1.6784664,-70.66859,12921.567
1.6861494,-70.67626,12921.601
1.6938372,-70.68395,12921.632
1.7015216,-70.691635,12921.666
1.7092111,-70.69932,12921.701
1.7168956,-70.70699,12921.732
1.7245768,-70.714676,12921.766
1.7322662,-70.72236,12921.802
1.739954,-70.73004,12921.833
1.7476418,-70.73772,12921.865
1.7553247,-70.7454,12921.899
1.7630092,-70.753075,12921.931
1.770697,-70.76076,12921.966
1.7783799,-70.76843,12921.999
1.7860627,-70.776115,12922.033
1.7937473,-70.78379,12922.064
1.8014269,-70.791466,12922.101
1.8091162,-70.79915,12922.132
1.8167958,-70.806816,12922.165
1.8244804,-70.8145,12922.199
1.8321681,-70.82217,12922.233
1.8398478,-70.82985,12922.264
1.8475306,-70.837524,12922.297
1.8552152,-70.84519,12922.331
1.8628997,-70.85287,12922.363
1.8705858,-70.86055,12922.396
1.8782703,-70.86822,12922.432
1.8859499,-70.87589,12922.464
1.8936311,-70.88357,12922.496
1.9013124,-70.891235,12922.529
1.9089968,-70.89891,12922.563
1.9166765,-70.906586,12922.596
1.9243593,-70.91425,12922.628
1.9320389,-70.92192,12922.664
1.9397218,-70.929596,12922.695
1.9473997,-70.93726,12922.729
1.9550842,-70.94493,12922.764
1.9627655,-70.95261,12922.794
1.9704484,-70.96027,12922.828
1.9781246,-70.96794,12922.86
1.9858043,-70.97561,12922.8955
1.9934871,-70.98328,12922.928
2.0011668,-70.990944,12922.96
2.008848,-70.99861,12922.992
2.0165243,-71.00628,12923.023
2.0242054,-71.01395,12923.059
2.0318851,-71.02161,12923.091
2.0395646,-71.029274,12923.124
2.0472443,-71.03694,12923.159
2.0549238,-71.04461,12923.1875
2.0625985,-71.05227,12923.224
2.0702584,-71.059875,12923.388
2.0778856,-71.06739,12923.738
2.0855012,-71.07485,12924.25
2.0932415,-71.08264,12924.122
2.101049,-71.09066,12923.559
2.1087744,-71.098465,12923.363
2.1164918,-71.10624,12923.133
2.124227,-71.11404,12922.828
2.1320083,-71.121956,12922.237
2.1397176,-71.12969,12921.99
2.1473627,-71.137245,12922.11
2.1548898,-71.144455,12922.933
2.1625054,-71.15189,12923.386
2.170208,-71.15961,12923.395
2.1779022,-71.16732,12923.448
2.1856394,-71.17515,12923.219
2.1934338,-71.18315,12922.601
2.2011855,-71.19103,12922.16
2.208883,-71.19875,12921.963
2.216543,-71.20637,12921.939
2.224193,-71.21394,12922.021
2.2318366,-71.22152,12922.152
2.2394898,-71.2291,12922.307
2.2471497,-71.236694,12922.47
2.254808,-71.24431,12922.637
2.2624712,-71.25192,12922.803
2.2701426,-71.259544,12922.972
2.2778058,-71.26717,12923.138
2.2854707,-71.2748,12923.303
2.2931387,-71.28243,12923.472
2.300802,-71.290054,12923.639
2.308467,-71.29768,12923.806
2.3161333,-71.30531,12923.972
2.3238046,-71.31294,12924.139
2.3314695,-71.32057,12924.307
2.339141,-71.3282,12924.472
2.3468041,-71.33582,12924.639
2.3544705,-71.34345,12924.806
2.3621337,-71.35108,12924.972
2.3698003,-71.3587,12925.14
2.3774602,-71.36633,12925.306
2.3851347,-71.37396,12925.47
2.3927932,-71.381584,12925.64
2.4004579,-71.3892,12925.806
2.4081228,-71.39683,12925.971
2.4157925,-71.40446,12926.139
2.4234557,-71.41208,12926.307
2.4311173,-71.41969,12926.472
2.4387805,-71.427315,12926.638
2.4464405,-71.434944,12926.804
2.4541118,-71.442566,12926.971
2.4617748,-71.45019,12927.139
2.4694283,-71.4578,12927.303
2.4770963,-71.46542,12927.471
2.4848318,-71.47324,12927.239
2.4925654,-71.48103,12927.081
2.5001369,-71.488365,12927.81
2.5075853,-71.49531,12929.377
2.5151794,-71.5026,12930.3545
2.5229344,-71.510376,12930.5
2.5306928,-71.518196,12930.625
2.5383642,-71.52578,12931.141
2.5459504,-71.53308,12932.197
2.5535085,-71.540276,12933.479
2.561088,-71.54753,12934.749
2.5688055,-71.55521,12935.254
2.5766196,-71.56316,12935.207
2.5844433,-71.57115,12935.007
2.592351,-71.57939,12934.152
2.600329,-71.58784,12932.711
2.608202,-71.59602,12931.61
2.6159701,-71.603905,12930.937
2.6236794,-71.61159,12930.563
2.6313605,-71.6192,12930.363
2.639037,-71.6268,12930.253
2.6467197,-71.63442,12930.178
2.6544042,-71.64206,12930.121
2.662097,-71.64972,12930.071
2.6697946,-71.6574,12930.02
2.6774971,-71.665085,12929.971
2.6851997,-71.67278,12929.921
2.6929104,-71.68047,12929.87
2.700613,-71.68817,12929.819
2.7083156,-71.69586,12929.768
2.7160246,-71.70356,12929.718
2.7237337,-71.71126,12929.666
2.731438,-71.71896,12929.614
2.7391472,-71.72666,12929.5625
2.7468464,-71.73435,12929.513
2.7545571,-71.74205,12929.46
2.7622597,-71.74974,12929.408
2.7699606,-71.75744,12929.355
2.7776697,-71.76514,12929.307
2.7853723,-71.772835,12929.255
2.7930765,-71.780525,12929.199
2.8007822,-71.788216,12929.149
2.8084898,-71.79591,12929.095
2.816189,-71.803604,12929.047
2.8238947,-71.811295,12928.997
2.8315973,-71.81899,12928.944
2.8393033,-71.82668,12928.895
2.8470008,-71.83437,12928.842
2.8547018,-71.842064,12928.791
2.8624074,-71.849754,12928.738
2.8701117,-71.85745,12928.6875
2.877811,-71.865135,12928.634
2.8855135,-71.872826,12928.583
2.8932195,-71.88052,12928.53
2.9009137,-71.88821,12928.479
2.908618,-71.89589,12928.43
2.9163172,-71.90359,12928.378
2.9240198,-71.91127,12928.325
2.9317207,-71.91895,12928.273
2.93942,-71.92664,12928.223
2.947129,-71.93433,12928.171
2.9548266,-71.94202,12928.118
2.9625227,-71.94971,12928.069
2.970222,-71.95739,12928.015
2.977923,-71.96507,12927.965
2.985627,-71.972755,12927.912
2.9933248,-71.980446,12927.862
3.0010257,-71.98813,12927.809
3.0087216,-71.99581,12927.759
3.0164175,-72.003494,12927.706
3.0241218,-72.01118,12927.655
3.031821,-72.01886,12927.603
3.039517,-72.026535,12927.552
3.0472162,-72.034225,12927.498
3.054917,-72.0419,12927.45
3.0626082,-72.04958,12927.396
3.0703075,-72.05726,12927.345
3.0780034,-72.06494,12927.294
3.085706,-72.072624,12927.241
3.0933971,-72.0803,12927.19
3.101093,-72.08798,12927.138
3.1087956,-72.09566,12927.086
3.116485,-72.10334,12927.033
3.1243958,-72.11162,12925.698
3.1317558,-72.11845,12927.31
3.1389172,-72.12468,12930.041
3.1465247,-72.132095,12930.6
3.1542861,-72.14002,12930.409
3.1618984,-72.14762,12930.852
3.169519,-72.155205,12931.198
3.1771724,-72.16286,12931.357
3.1848357,-72.17055,12931.406
3.1924562,-72.17811,12931.6875
3.200039,-72.18557,12932.133
3.2075825,-72.19289,12932.8955
3.2150767,-72.200066,12933.973
3.2226562,-72.20746,12934.705
3.2303786,-72.21527,12934.648
3.2380974,-72.22309,12934.552
3.2457852,-72.23086,12934.464
3.2534485,-72.238556,12934.391
3.2610838,-72.2462,12934.332
3.2687109,-72.25382,12934.279
3.2763348,-72.26144,12934.231
3.283944,-72.269035,12934.184
3.2915595,-72.27663,12934.136
3.2991652,-72.284225,12934.09
3.3067727,-72.29182,12934.042
3.3143818,-72.29941,12933.996
3.3219974,-72.307,12933.948
3.3295999,-72.31459,12933.904
3.3372056,-72.32218,12933.857
3.3448148,-72.32977,12933.809
3.352424,-72.337364,12933.762
3.3600314,-72.344955,12933.716
3.3676436,-72.35255,12933.667
3.375243,-72.36014,12933.62
3.3828535,-72.36772,12933.574
3.3904579,-72.37531,12933.526
3.3980668,-72.382904,12933.4795
3.4056695,-72.390495,12933.435
3.413272,-72.39808,12933.388
3.420881,-72.40566,12933.343
3.4284916,-72.41325,12933.293
3.436099,-72.42084,12933.247
3.4436948,-72.42842,12933.201
3.4513023,-72.436005,12933.152
3.458908,-72.443596,12933.106
3.4665139,-72.45118,12933.062
3.474118,-72.45876,12933.012
3.481722,-72.46635,12932.968
3.4893296,-72.47393,12932.919
3.4969337,-72.481514,12932.873
3.5045364,-72.4891,12932.825
3.5121338,-72.49668,12932.779
3.519738,-72.50426,12932.731
3.5273454,-72.51185,12932.685
3.534948,-72.519424,12932.637
3.542554,-72.52701,12932.591
3.5501513,-72.53459,12932.545
3.5577507,-72.54216,12932.499
3.5653465,-72.54974,12932.451
3.5729556,-72.55733,12932.403
3.5805516,-72.5649,12932.356
3.5881608,-72.57248,12932.31
3.5957615,-72.58006,12932.263
3.6033673,-72.58764,12932.217
3.610965,-72.595215,12932.169
3.6185625,-72.60278,12932.124
3.6261635,-72.61037,12932.077
3.6337626,-72.61794,12932.029
3.6413653,-72.62552,12931.982
3.6489627,-72.633095,12931.933
3.656557,-72.64066,12931.887
3.6642728,-72.64857,12931.131
3.671841,-72.65614,12931.005
3.6792104,-72.663155,12931.94
3.686562,-72.67006,12933.095
3.693912,-72.676994,12934.347
3.7012818,-72.68399,12935.628
3.7087696,-72.69134,12936.276
3.716254,-72.698685,12937.001
3.723886,-72.70646,12936.81
3.7313688,-72.713844,12937.366
3.7389991,-72.72165,12936.915
3.746682,-72.72961,12936.089
3.7542846,-72.73738,12935.538
3.7618592,-72.745094,12934.927
3.769283,-72.75238,12935.131
3.776774,-72.75985,12934.912
3.7865953,-72.77384,12921.171
3.7982023,-72.79337,12895.586
3.8105228,-72.815475,12862.496
3.8228679,-72.83794,12825.364
3.8349376,-72.85972,12786.287
3.846651,-72.88052,12746.361
3.858045,-72.900475,12706.105
3.869193,-72.91978,12665.738
3.8801475,-72.93865,12625.342
3.8909922,-72.957245,12584.939
3.9017415,-72.975685,12544.536
3.91244,-72.99404,12504.126
3.9230895,-73.01235,12463.709
3.9337194,-73.03064,12423.281
3.9443278,-73.04893,12382.844
3.9549131,-73.067215,12342.393
3.9654758,-73.0855,12301.928
3.9760234,-73.103806,12261.449
3.986545,-73.122116,12220.962
3.997042,-73.140434,12180.457
4.0075274,-73.15877,12139.938
4.0179834,-73.17709,12099.409
4.0284195,-73.19544,12058.866
4.0388327,-73.2138,12018.3125
4.049228,-73.23216,11977.742
4.059597,-73.25053,11937.163
4.0699368,-73.26891,11896.568
4.080263,-73.28731,11855.965
4.090566,-73.305695,11815.348
4.1008453,-73.32411,11774.718
4.1111045,-73.34252,11734.076
4.121334,-73.360954,11693.423
4.1315455,-73.37939,11652.754
4.141731,-73.39783,11612.078
4.151893,-73.41628,11571.387
4.1620326,-73.43474,11530.686
4.172146,-73.45321,11489.975
4.1822376,-73.47169,11449.25
4.1923018,-73.49017,11408.515
4.202349,-73.50867,11367.769
4.212369,-73.52716,11327.013
4.222366,-73.54567,11286.244
4.2323313,-73.56419,11245.462
4.242274,-73.582726,11204.673
4.2522035,-73.60125,11163.868
4.262092,-73.6198,11123.059
4.2719655,-73.63835,11082.236
4.281813,-73.656906,11041.402
4.291631,-73.675476,11000.56
4.3014345,-73.694046,10959.706
4.3112,-73.71264,10918.844
4.320949,-73.731224,10877.967
4.3306656,-73.749825,10837.085
4.3403606,-73.768425,10796.191
4.3500276,-73.78704,10755.289
4.359675,-73.80566,10714.373
4.3692865,-73.824295,10673.451
4.37888,-73.842926,10632.518
4.3884435,-73.86157,10591.577
4.3979797,-73.88022,10550.625
4.4074893,-73.89888,10509.665
4.416978,-73.91755,10468.695
4.4264317,-73.93622,10427.719
4.435859,-73.9549,10386.731
4.445264,-73.97359,10345.733
4.4546394,-73.99228,10304.7295
4.4639916,-74.01099,10263.715
4.473313,-74.0297,10222.693
4.4826093,-74.04841,10181.664
4.492245,-74.06896,10136.794
4.5019894,-74.090416,10089.692
4.5116777,-74.11203,10041.4
4.521255,-74.13342,9992.582
4.5308857,-74.155075,9942.355
4.5406103,-74.17712,9890.544
4.5504827,-74.19985,9836.567
4.560389,-74.22285,9781.249
4.570191,-74.24561,9725.49
4.579843,-74.26805,9669.644
4.5892706,-74.2899,9614.4
4.598472,-74.311264,9559.845
4.607546,-74.3325,9505.478
4.6164865,-74.353546,9451.536
4.625284,-74.37439,9398.121
4.633487,-74.39427,9346.79
4.6411405,-74.413445,9297.269
4.648446,-74.43233,9248.935
4.655552,-74.45122,9201.279
4.662572,-74.47026,9153.971
4.66954,-74.4895,9106.819
4.676475,-74.50891,9059.73
4.683392,-74.52845,9012.661
4.690278,-74.54808,8965.596
4.6971326,-74.56778,8918.5205
4.7039595,-74.58752,8871.439
4.710744,-74.607285,8824.35
4.717489,-74.62707,8777.25
4.724186,-74.64686,8730.144
4.73085,-74.66667,8683.029
4.7374754,-74.68648,8635.907
4.7440515,-74.70629,8588.78
4.7505865,-74.72612,8541.646
4.7570786,-74.74596,8494.506
4.7635283,-74.765785,8447.359
4.769939,-74.78562,8400.205
4.7763047,-74.80547,8353.048
4.7826266,-74.825325,8305.884
4.7889104,-74.84518,8258.716
4.7951503,-74.865036,8211.538
4.8013425,-74.884895,8164.358
4.8074937,-74.90476,8117.172
4.813606,-74.92463,8069.9814
4.819673,-74.94451,8022.7856
4.825695,-74.964386,7975.586
4.831666,-74.984276,7928.3813
4.8376055,-75.00416,7881.172
4.843491,-75.02405,7833.958
4.849347,-75.043945,7786.7393
4.8551393,-75.06384,7739.5186
4.8608932,-75.08375,7692.294
4.8666067,-75.10365,7645.065
4.872276,-75.123566,7597.833
4.8778973,-75.143486,7550.5967
4.8834763,-75.1634,7503.356
4.8890095,-75.18332,7456.1143
4.8944945,-75.20325,7408.871
4.8999457,-75.22317,7361.6206
4.905338,-75.2431,7314.3726
4.9106903,-75.26303,7267.1187
4.915997,-75.28297,7219.8623
4.921256,-75.3029,7172.605
4.9264674,-75.322845,7125.346
4.9316363,-75.34279,7078.085
4.936766,-75.36273,7030.8213
4.941837,-75.38268,6983.557
4.9468646,-75.40263,6936.2886
4.9518466,-75.42259,6889.022
4.9567795,-75.44254,6841.752
4.9616694,-75.462494,6794.482
4.966507,-75.48245,6747.2114
4.971302,-75.50242,6699.9395
4.9760447,-75.52238,6652.6675
4.980745,-75.54234,6605.394
4.985399,-75.56231,6558.1206
4.9899936,-75.582275,6510.8486
4.9945493,-75.60225,6463.573
4.999062,-75.622215,6416.302
5.0035195,-75.64219,6369.0273
5.0079274,-75.662155,6321.754
5.012296,-75.68214,6274.4834
5.016606,-75.70211,6227.211
5.0208693,-75.722084,6179.9414
5.02509,-75.74206,6132.671
5.029256,-75.76204,6085.402
5.0333786,-75.78202,6038.135
5.0374517,-75.801994,5990.869
5.0410433,-75.81726,5952.08
5.0440345,-75.82858,5921.4663
5.046701,-75.83851,5895.487
5.0493116,-75.849594,5869.842
5.052027,-75.86443,5839.2915
5.0548873,-75.88379,5801.2446
5.0577865,-75.90612,5757.0547
5.0605483,-75.92966,5708.9883
5.063067,-75.95227,5660.606
5.065307,-75.9725,5614.929
5.067275,-75.99136,5570.983
5.0691476,-76.00826,5530.3716
5.070981,-76.02468,5491.0327
5.0730014,-76.040985,5452.468
5.0753694,-76.05608,5416.522
5.0781045,-76.07011,5383.053
5.0807877,-76.08257,5351.5312
5.083231,-76.09367,5321.26
5.0854516,-76.10385,5291.698
5.0875177,-76.11349,5262.5024
5.089469,-76.12286,5233.477
5.091358,-76.13211,5204.5264
5.093211,-76.14133,5175.6055
5.0950384,-76.15054,5146.6943
5.0968485,-76.15976,5117.787
5.098643,-76.16898,5088.8813
5.100424,-76.17822,5059.977
5.1021814,-76.18746,5031.072
5.103926,-76.19671,5002.168
5.1056514,-76.20595,4973.267
5.1073537,-76.215195,4944.3687
5.109046,-76.224434,4915.4697
5.1107087,-76.23368,4886.5728
5.112352,-76.24292,4857.679
5.1139855,-76.25216,4828.787
5.115589,-76.2614,4799.896
5.117173,-76.270645,4771.007
5.1187477,-76.27988,4742.119
5.1202927,-76.28911,4713.2344
5.1218243,-76.29834,4684.351
5.1233363,-76.30758,4655.47
5.1248283,-76.31681,4626.5903
5.126298,-76.32604,4597.714
5.1277475,-76.33526,4568.8384
5.1291776,-76.34449,4539.9663
5.130591,-76.353714,4511.095
5.1319814,-76.36294,4482.2256
5.1333556,-76.37216,4453.3594
5.1347103,-76.381386,4424.4946
5.136045,-76.3906,4395.6323
5.137354,-76.39982,4366.7734
5.138646,-76.409035,4337.916
5.1399217,-76.41824,4309.06
5.141175,-76.42745,4280.2075
5.142408,-76.43667,4251.3584
5.143618,-76.44587,4222.5103
5.144812,-76.455086,4193.664
5.1459894,-76.46429,4164.8223
5.147147,-76.47349,4135.982
5.1471176,-76.479706,4110.4604
5.145645,-76.48296,4088.3176
5.1429853,-76.48427,4068.6787
5.1394987,-76.484566,4050.645
5.135501,-76.48448,4033.5493
5.1312175,-76.484375,4016.9683
5.12678,-76.48438,4000.6528
5.122277,-76.484535,3984.467
5.1177406,-76.48484,3968.3416
5.1131883,-76.485245,3952.2427
5.1086264,-76.48573,3936.154
5.1040545,-76.48627,3920.0698
5.0994854,-76.48685,3903.9846
5.094904,-76.48744,3887.9026
5.0903153,-76.48805,3871.8188
5.0857234,-76.48866,3855.7356
5.0811057,-76.48928,3839.653
5.076501,-76.4899,3823.5698
5.07188,-76.490524,3807.4875
5.067249,-76.491135,3791.405
5.062624,-76.49175,3775.324
5.05798,-76.49236,3759.2424
5.0533357,-76.49298,3743.1611
5.0486817,-76.4936,3727.0813
5.0440245,-76.4942,3711.0015
5.0393543,-76.49481,3694.9219
5.034687,-76.49542,3678.843
5.03001,-76.49603,3662.7644
5.02532,-76.49663,3646.686
5.020633,-76.49723,3630.6091
5.0159335,-76.49783,3614.5322
5.01123,-76.498436,3598.4548
5.0065203,-76.49903,3582.3794
5.001807,-76.499626,3566.3042
4.9970813,-76.50022,3550.229
4.992355,-76.50082,3534.1548
4.9876223,-76.50141,3518.0803
4.982883,-76.502,3502.0066
4.978134,-76.502594,3485.9343
4.9733815,-76.50318,3469.8613
4.9686193,-76.50376,3453.7898
4.963857,-76.50434,3437.7185
4.9590917,-76.50493,3421.6475
4.9543095,-76.50551,3405.5781
4.949521,-76.50609,3389.5083
4.9447327,-76.50667,3373.439
4.9399343,-76.50724,3357.3708
4.9351296,-76.50782,3341.3027
4.930321,-76.50839,3325.2356
4.925502,-76.508965,3309.169
4.920684,-76.50953,3293.1028
