Latitude,Longitude,Altitude (m)
22.90449298243501,120.2749164544497,18.65289862763882
22.904494847085562,120.27491868700994,18.65521650862694
22.904496697387398,120.27492090507707,18.657527941286567
22.904498533796023,120.27492310726339,18.659839960157875
22.90450035562817,120.27492529464823,18.66215666872263
22.904502162883837,120.274927466769,18.664466928958895
22.904503956701813,120.27492962316317,18.666779534041883
22.904505735487795,120.27493176398494,18.669093897759918
22.9045074996973,120.27493388938846,18.671407089054586
22.90450924955808,120.27493599891122,18.673719107925894
22.904510984842382,120.27493809301572,18.676031126797202
22.904512705322446,120.27494017139364,18.678346076726914
22.90451441145379,120.27494223404496,18.680656336963178
22.90451610255314,120.27494428096968,18.682968942046166
22.904517779303767,120.27494631170525,18.68528389197588
22.904519440111372,120.27494832640586,18.687593566000462
22.90452108679801,120.27495032522569,18.68990441244841
22.904522718452654,120.2749523077022,18.692219948589806
22.904524335075305,120.27495427476046,18.69453079503775
22.904525936210447,120.27495622485867,18.696841641485694
22.904527522996865,120.27495815907609,18.699154832780362
22.904529094068018,120.274960076796,18.701464506804946
22.904530649423904,120.2749619781726,18.703776525676254
22.90453219043107,120.27496386320587,18.706090889394286
22.904533715950723,120.27496573143326,18.708399390995506
22.904535225982873,120.27496758316313,18.710711996078494
22.904536720527506,120.2749694183955,18.71302342873812
22.904538199584636,120.27497123666781,18.715335447609426
22.90453966269874,120.27497303890516,18.717645121634007
22.904541110097576,120.2749748237199,18.719957140505315
22.904542542008905,120.27497659142041,18.72226798695326
22.904543958432722,120.2749783426234,18.724578833401207
22.904545359141274,120.27498007686634,18.72688967984915
22.90454674413456,120.27498179384085,18.729200526297095
22.904548113412577,120.27498349354694,18.73151137274504
22.904549465836542,120.27498517629299,18.733822219192984
22.904550802773,120.27498684161641,18.736133065640928
22.90455212376643,120.27498849028815,18.738442739665512
22.90455342836132,120.27499012061219,18.740753586113456
22.904554717013188,120.27499173413035,18.743065604984764
22.904555989266516,120.27499333007174,18.74537410658598
22.904557246032336,120.27499490859051,18.747683780610565
22.90455848503307,120.27499646922413,18.74999579948187
22.904559709001813,120.27499801228097,18.75230430108309
22.9045609161165,120.27499953760685,18.75461338889599
22.90456210637713,120.27500104520175,18.756927166402342
22.904563281150256,120.27500253506568,18.759236254215242
22.90456443770278,120.2750040067361,18.76154416960478
22.904565578767794,120.27500546052136,18.76385736089945
22.90456670252324,120.27500689657565,18.766164690077307
22.904567810335664,120.27500831443643,18.768473777890208
22.904568900383,120.27500971364115,18.77078462433815
22.9045699740318,120.27501109511489,18.773094884574416
22.904571031054303,120.27501245824094,18.775403386175636
22.904572071222752,120.27501380317348,18.777713060200217
22.904573093626116,120.27501512929577,18.78002332043648
22.904574099175424,120.27501643737872,18.782331822037698
22.90457508809844,120.27501772665143,18.784640323638918
22.904576059256367,120.27501899742226,18.786952928721906
22.904577014015757,120.27502024999957,18.789259085476402
22.904577950326793,120.27502148345827,18.79156758707762
22.904578870239288,120.27502269810674,18.79388077837229
22.904579772614454,120.27502389409914,18.796187521338464
22.904580656769024,120.27502507112709,18.798496022939684
22.904581524297296,120.27502622919063,18.800808628022672
22.90458237406048,120.27502736859812,18.803114784777165
22.90458320583083,120.27502848857861,18.80542445880175
22.90458402029161,120.27502958913215,18.80773413282633
22.9045848169873,120.27503067118379,18.81004263442755
22.904585595917908,120.27503173380846,18.81235113602877
22.90458635753895,120.27503277700616,18.81466081005335
22.904587100483877,120.27503380108526,18.816971656501295
22.904587825663718,120.27503480558318,18.81927839946747
22.904588533078478,120.27503579065414,18.821588659703735
22.904589222272634,120.27503675583557,18.823897161304952
22.904589893246197,120.2750377018984,18.82620449048281
22.90459054645467,120.27503862791752,18.828514164507393
22.904591180987033,120.2750395342013,18.830825010955337
22.904591797982068,120.27504042105811,18.833132340133194
22.904592395845473,120.27504128771703,18.835439083099367
22.90459297571604,120.27504213494898,18.837751688182355
22.904593537366004,120.27504296136631,18.84005901736021
22.90459408079537,120.27504376835667,18.842365174114708
22.904594604865352,120.27504455530332,18.844678365409376
22.90459511094249,120.27504532220627,18.846985108375552
22.904595598343516,120.27504606844879,18.849291851341725
22.904596067068425,120.2750467946476,18.851603870213033
22.904596516661705,120.27504750049434,18.853912371814253
22.904596948262146,120.27504818598901,18.856218528568746
22.904597360275442,120.27504885082325,18.85852820259333
22.90459775315711,120.27504949561379,18.86083846282959
22.90459812850145,120.27505011928135,18.863145205795767
22.90459848380313,120.27505072259683,18.86545605224371
22.904598819973184,120.27505130525189,18.867765726268292
22.904599137467123,120.27505186755488,18.87007188302279
22.904599435829432,120.2750524085807,18.87238097083569
22.904599714604597,120.27505292879191,18.87469123107195
22.904599974248132,120.27505342772595,18.87699973267317
22.904600214304526,120.27505390584538,18.879305889427663
22.90460043522929,120.27505436284183,18.88161790829897
22.904600637022423,120.27505479886949,18.88392582368851
22.904600819228413,120.27505521392834,18.886233739078047
22.90460098184726,120.27505560771003,18.88854458552599
22.904601124423447,120.2750559799062,18.89085191470385
22.90460124786801,120.27505633051683,18.893159830093385
22.904601350814392,120.27505666046703,18.895472435176373
22.904601435540176,120.27505696852334,18.89777917814255
22.904601499540032,120.2750572543774,18.900086507320406
22.90460154395274,120.27505751972521,18.902398526191714
22.90460156763952,120.27505776287074,18.904707027792934
22.904601571966914,120.27505798427659,18.90701494318247
22.90460155670716,120.27505818409689,18.90932461720705
22.904601521176993,120.27505836202332,18.911634291231636
22.90460146537641,120.27505851805584,18.913941620409492
22.904601389533166,120.27505865188611,18.916252466857436
22.904601293191746,120.27505876351412,18.91856331330538
22.904601176352156,120.2750588535566,18.920870642483237
22.904601039697663,120.27505892093428,18.923180316507818
22.904600882544997,120.27505896641807,18.925491162955762
22.904600704894154,120.27505898969962,18.927800836980346
22.90460050674514,120.27505899047053,18.930108166158202
22.904600288097953,120.27505896919337,18.93242018502951
22.904600048497073,120.27505892509721,18.934728100419047
22.904599789309053,120.27505885849044,18.937037188231947
22.904599508484072,120.27505876906469,18.939349207103255
22.9045992067054,120.27505865728249,18.941657708704472
22.90459888442855,120.2750585228355,18.943967968940736
22.904598541425777,120.2750583655695,18.946280574023724
22.90459817746931,120.27505818533035,18.94858790320158
22.904597792559155,120.2750579824264,18.9508964048028
22.90459738669531,120.27505775654927,18.953209596097473
22.90459695987778,120.27505750723643,18.955519270122053
22.904596511651043,120.27505723525879,18.957828357934954
22.904596042698373,120.27505694015379,18.96013979059458
22.904595552108745,120.2750566214589,18.962451223254206
22.904595040337668,120.27505627994502,18.964759724855426
22.904594507157388,120.27505591514961,18.96707115751505
22.90459395211239,120.27505552645594,18.96938317638636
22.904593376113702,120.27505511494327,18.971691091775895
22.904592778478055,120.27505467953236,18.974003696858887
22.90459215988872,120.27505422099408,18.976316888153555
22.90459151943466,120.27505373794082,18.97862421733141
22.904590857115885,120.27505323206857,18.980937408626083
22.904590173615663,120.2750527019897,18.983249427497388
22.90458946688418,120.27505214816674,18.98555968773365
22.90458873942676,120.27505157029132,18.987869947969916
22.904587990104623,120.27505096867185,18.990184311687948
22.904587219373283,120.27505034284573,18.992495744347575
22.90458642563844,120.27504969327555,18.994806004583836
22.90458561049439,120.27504902011546,18.99712036830187
22.904584773257863,120.2750483222862,18.999431800961496
22.904583913701103,120.27504759978777,19.00174206119776
22.904583032279625,120.27504685292853,19.00405525249243
22.90458212785464,120.27504608247938,19.006369616210463
22.904581201337177,120.27504528705269,19.008679290235044
22.904580253182754,120.27504446741939,19.010991895318032
22.904579282024823,120.27504362280854,19.013306259036067
22.90457828877442,120.27504275383689,19.01561710548401
22.904577272520505,120.27504186019605,19.017930882990363
22.90457623417412,120.27504094173186,19.02024641913176
22.904575173735253,120.27503999844433,19.022557265579703
22.904574089154096,120.27503903064179,19.02487045687437
22.90457298361925,120.27503803739917,19.02718716543913
22.904571854169866,120.27503701948737,19.029498011887075
22.904570702400246,120.27503597644386,19.031810030758383
22.904569527399367,120.27503490857698,19.034127911746506
22.904568329167223,120.27503381496166,19.03643934440613
22.9045671088426,120.27503269652298,19.03875312191248
22.9045658648312,120.27503155264422,19.04106983047724
22.904564598499565,120.27503038332537,19.04338302177191
22.90456330802564,120.27502918856644,19.045695040643217
22.904561995459236,120.27502796836741,19.04801292163134
22.90456065920605,120.2750267227283,19.050328457772736
22.90455929926609,120.27502545118656,19.052641062855724
22.904557916094866,120.27502415466728,19.05495659899712
22.90455651014789,120.27502283193701,19.057273307561875
22.904555080058625,120.27502148314991,19.05958825749159
22.90455362696585,120.27502010876854,19.061903793632986
22.904552149730783,120.27501870848455,19.06421991598606
22.904550649947723,120.27501728229794,19.06653603833914
22.90454912602237,120.27501582990031,19.0688527469039
22.90454757818248,120.27501435144588,19.07117062789202
22.904546006655814,120.27501284647207,19.07348499161005
22.904544410531336,120.275011315904,19.07580111396313
22.904542792086627,120.27500975881657,19.078120753586294
22.90454114881635,120.27500817536396,19.08043570351601
22.904539481403777,120.27500656539199,19.082751825869085
22.90453779053219,120.27500492920902,19.085072051703932
22.9045360755183,120.27500326604414,19.087387587845328
22.904534336134365,120.2750015763599,19.08970605504513
22.904532573063648,120.27499985984794,19.092024522244934
22.90453078562288,120.27499811743333,19.094342403233053
22.90452897312879,120.27499634726591,19.09665852558613
22.90452713717568,120.27499455027076,19.09897933763266
22.904525277080275,120.27499272691043,19.101298391044143
22.904523391248276,120.27499087625984,19.103616272032262
22.90452148195725,120.27498899878151,19.10593591165543
22.904519547612903,120.2749870940129,19.108256723701956
22.904517588898507,120.27498516179985,19.110574604690076
22.904515606041816,120.27498320275906,19.112894244313242
22.904513597676285,120.27498121627382,19.115215642571453
22.904511565168463,120.27497920234411,19.117534109771253
22.904509507607315,120.27497716096997,19.11985374939442
22.9045074252206,120.27497509215135,19.122176906287674
22.904505318008322,120.27497299557992,19.124495373487473
22.904503185970473,120.27497087125568,19.126816185534004
22.90450102842379,120.27496872025787,19.12913992863894
22.90449884605154,120.2749665402738,19.131460154473785
22.904496638625965,120.27496433330782,19.13377979409695
22.904494406147066,120.27496209828064,19.136105295836927
22.904492148387085,120.27495983488393,19.138424935460094
22.90448986580154,120.27495754373439,19.14074574750662
22.9044875574794,120.27495522483203,19.143073007881643
22.904485223648418,120.27495287725175,19.14539323371649
22.904482864536355,120.27495050207283,19.1477146319747
22.9044804796877,120.274948098216,19.150038961291315
22.904478069785718,120.27494566645217,19.152364463031294
22.90447563414714,120.27494320601042,19.15468527507782
22.904473172771965,120.27494071673657,19.15700960439444
22.904470685660193,120.27493819909317,19.159335692346097
22.904468173039586,120.27493565354277,19.16165826302767
22.904465635137896,120.27493307869773,19.163983178555966
22.904463070360823,120.27493047532896,19.16630926650763
22.904460480530425,120.27492784328227,19.1686318371892
22.904457864052404,120.27492518209512,19.17095792514086
22.904455221382268,120.27492249223005,19.173285185515883
22.90445255365881,120.2749197733787,19.175609514832498
22.904449859515484,120.27491702554107,19.177935016572476
22.904447138724528,120.2749142484088,19.180263449370862
22.904444392652497,120.27491144229026,19.18258836489916
22.90444162038835,120.27490860687706,19.184915039062503
22.90443882033779,120.27490574216922,19.18724464428425
22.90443599523391,120.27490284816675,19.189569559812547
22.9044331434824,120.27489992486962,19.191897406399253
22.904430265311024,120.27489697196948,19.194227597832683
22.904427360036504,120.27489398946634,19.196554271996025
22.90442442902539,120.27489097766855,19.19888270479441
22.904421471138892,120.27488793565102,19.201211137592793
22.90441848660477,120.27488486433884,19.203540742814543
22.90441547519526,120.2748817631153,19.20586917561293
22.904412436682613,120.27487863198039,19.208198780834678
22.904409372433367,120.27487547093409,19.210530144691468
22.90440628108098,120.27487227966806,19.212860336124898
22.904403162169938,120.2748690589532,19.215188768923284
22.90440001661127,120.27486580740188,19.217523063838485
22.904396843721706,120.27486252563082,19.219850910425187
22.90439364441227,120.27485921425675,19.222181101858617
22.904390417771936,120.27485587220039,19.224514224350454
22.904387163572945,120.27485249961593,19.226846174418927
22.904383882270814,120.27484909681174,19.229176365852357
22.9043805740933,120.27484566301689,19.231511246979238
22.904377238357128,120.27484219900231,19.23384319704771
22.9043738750623,120.2748387046138,19.236175147116185
22.904370484436576,120.27483517908045,19.23851061445475
22.904367066252195,120.27483162301901,19.240842564523224
22.90436362119243,120.27482803612111,19.243173342168333
22.904360147890735,120.27482441746163,19.245512326776982
22.90435664680263,120.27482076919915,19.247846621692183
22.90435311883914,120.27481708886675,19.250177399337293
22.90434956263372,120.27481337738952,19.252514039099218
22.904345978641885,120.27480963569253,19.25485302370787
22.904342367319156,120.27480586192563,19.257184973776344
22.904338727982253,120.27480205716809,19.259520441114905
22.904335059947908,120.27479822064898,19.261858839511873
22.904331364354906,120.27479435298503,19.264191375792027
22.904327640975488,120.27479045402207,19.266529187977316
22.90432388980966,120.27478652329754,19.268870517432692
22.90432010971863,120.27478256096563,19.27120363992453
22.904316301841188,120.27477856702636,19.273542038321498
22.90431246549406,120.27477454070879,19.27588278156519
22.904308600905,120.27477048324639,19.278218248903755
22.904304708529526,120.27476639371405,19.280557233512404
22.904300787001098,120.27476227180343,19.28289914917946
22.904296837686253,120.27475811813125,19.285236375153065
22.904292859673966,120.2747539326975,19.287574187338354
22.90428885250872,120.2747497145771,19.289917861640454
22.904284817101548,120.27474546469514,19.292256260037423
22.904280753452444,120.27474118181816,19.29459465843439
22.904276660650382,120.2747368673338,19.296938332736495
22.904272539378635,120.27473251985441,19.29927966219187
22.904268389637203,120.27472814045929,19.301619819223884
22.904264210059537,120.27472372776077,19.30396173489094
22.9042600024677,120.27471928268398,19.306305995404724
22.904255765722908,120.27471480522888,19.308647324860097
22.904251500280672,120.27471029447041,19.310988068103793
22.90424720522996,120.27470575102527,19.313333501040937
22.90424288193732,120.27470117489348,19.315676002919677
22.904238528580695,120.27469656576667,19.318017332375053
22.904234146071108,120.27469192333648,19.32036686879397
22.90422973463632,120.27468724791126,19.32270819824934
22.904225294048576,120.27468253964521,19.325052458763125
22.9042208236246,120.27467779745905,19.327400236546996
22.904216324503178,120.27467302212368,19.32974508327246
22.90421179531777,120.27466821348492,19.332087585151196
22.904207236751645,120.27466337185115,19.334438293993475
22.904202648804805,120.27465849629725,19.336781968295575
22.90419803147725,120.27465358713161,19.339127987444403
22.904193384313462,120.27464864420004,19.341476351439955
22.904188707313445,120.27464366765672,19.343824715435506
22.90418400070495,120.27463865734747,19.346171907007697
22.904179264487986,120.27463361311811,19.348518512368205
22.904174498207034,120.2746285351228,19.35086922121048
22.904169701406577,120.27462342320739,19.353216412782672
22.904164875453162,120.27461827675513,19.355565362989903
22.904160019208,120.27461309653695,19.357917244255546
22.90415513289885,120.27460788193609,19.360266194462778
22.90415021698123,120.27460263326095,19.362615144670013
22.904145270316345,120.27459735020314,19.364967025935652
22.904140294042985,120.2745920326085,19.367317148566247
22.904135287250124,120.27458668063117,19.369666684985162
22.90413024993776,120.27458129396284,19.37202149730921
22.90412518233365,120.27457587306601,19.374371619939808
22.904120084665553,120.27457041701562,19.376722914993763
22.904114956022436,120.2745649264284,19.379078313529494
22.90410979708757,120.27455940084177,19.381429608583453
22.90410460808872,120.2745538407183,19.383780903637412
22.90409938811485,120.27454824574961,19.386137474596502
22.90409413739372,120.27454261501065,19.38848935586214
22.90408885638084,120.27453694942645,19.390842409551144
22.90408354416519,120.27453124915124,19.39319898051024
22.904078201657793,120.27452551310571,19.3955532066226
22.90407282794762,120.27451974236918,19.39790860515833
22.904067423034668,120.27451393524561,19.40026400369406
22.904061988285488,120.27450809358518,19.402621160864832
22.904056521650258,120.27450221615446,19.40497597318888
22.904051024267766,120.27449630295344,19.40733254414797
22.904045495226985,120.27449035429048,19.409690287530424
22.90403993589446,120.27448436985722,19.412048030912878
22.90403434490364,120.27447834934529,19.41440342944861
22.90402872225453,120.27447229321723,19.41676469010115
22.904023069313677,120.27446620101051,19.41912126106024
22.904017385170047,120.27446007318768,19.421479004442695
22.90401166891261,120.27445390882363,19.4238414375186
22.9040059214524,120.27444770868927,19.42619800847769
22.90400014210614,120.2744414720137,19.428556338071825
22.903994331784858,120.27443519925947,19.43091935735941
22.903988489577532,120.27442888965565,19.433277686953545
22.90398261616743,120.27442254443572,19.435637775182727
22.903976710415762,120.27441616205785,19.438000794470312
22.90397077323356,120.27440974344712,19.44036088269949
22.9039648053041,120.27440328829518,19.442722143352032
22.90395880412205,120.27439679613947,19.445084576427938
22.903952771964974,120.27439026744256,19.447447009503843
22.903946707238582,120.27438370174188,19.449808270156385
22.903940610398383,120.27437709919163,19.45217070323229
22.90393448212765,120.27437045963761,19.454536067366604
22.903928321743113,120.27436378261729,19.45689908665419
22.903922129700284,120.27435706890157,19.459262692153455
22.90391590440486,120.27435031756535,19.46162864249945
22.903909647906662,120.27434352922538,19.463991075575354
22.903903358611384,120.27433670357328,19.466355267286303
22.90389703743006,120.27432984060906,19.468724148690704
22.9038906832239,120.27432293971597,19.47108775418997
22.903884296903932,120.27431600151077,19.4734525321126
22.903877878470162,120.27430902568507,19.475820241093636
22.90387142746707,120.27430201223888,19.478186777651313
