Latitude,Longitude,Altitude (m)
22.903764683209122,120.27312919897594,10.581110600233078
22.903768892264655,120.27312930550727,10.525158562779426
22.90377303765035,120.27312941685048,10.469201626062393
22.903777118681585,120.27312953288376,10.413239790081978
22.90378113467374,120.27312965354618,10.35727305483818
22.903785085113345,120.27312977908139,10.301302645146846
22.903788968802314,120.27312990924574,10.245326111376285
22.903792785740645,120.2731300437956,10.189347740381955
22.90379653490141,120.2731301829137,10.133360795676708
22.903800216113446,120.27313032660005,10.077370788931846
22.903803828692137,120.273130474611,10.021377107739449
22.903807371268236,120.27313062706835,9.965377914875745
22.9038108440129,120.27313078378941,9.909372597932816
22.90381424607035,120.27313094483506,9.853362994134425
22.90381757641366,120.27313111014439,9.797348491072654
22.903820835213974,120.27313127965652,9.741330313563346
22.903824020930898,120.2731314532496,9.685304174751042
22.903827133735593,120.27313163110637,9.62927374908328
22.903830172772274,120.27313181292229,9.573240261375904
22.9038331366717,120.27313199881915,9.517198812365532
22.903836026289646,120.27313218867516,9.461152464091777
22.903838839914563,120.27313238242941,9.405101828962565
22.903841576861822,120.27313258002097,9.349045682162046
22.903844236617964,120.27313278163258,9.2929834112823
22.903846819696447,120.27313298677697,9.236913791507481
22.903849323872258,120.27313319581958,9.18084110969305
22.903851748631926,120.27313340857769,9.124761691391468
22.903854094660073,120.27313362499041,9.068676149010658
22.903856360245147,120.2731338450577,9.012585707366465
22.90385854521599,120.27313406859686,8.956489141643047
22.903860648203356,120.27313429560789,8.9003864518404
22.903862669720716,120.2731345263344,8.844277637958527
22.9038646092546,120.27313476016734,8.788161475181578
22.903866464408836,120.27313499759394,8.732041025549172
22.903868236039195,120.27313523837059,8.675913227021693
22.90386992311875,120.27313548243637,8.61977991682291
22.903871525134033,120.27313572966946,8.563640482544898
22.90387304122926,120.27313598025259,8.507492474555969
22.903874471233287,120.27313623388123,8.451338954895734
22.90387581394802,120.27313649073807,8.395179923564195
22.903877068688832,120.2731367505186,8.339012318521737
22.903878235626888,120.27313701340552,8.282839201807976
22.903879313564094,120.27313727939885,8.226658123791218
22.90388030215814,120.27313754813312,8.170472146511077
22.903881200210936,120.27313781985198,8.114279432743787
22.903882007380172,120.27313809443359,8.058075695633887
22.90388272332354,120.27313837187798,8.001868284076451
22.90388334718526,120.27313865194148,7.945652298808097
22.903883878280713,120.27313893468501,7.88942896464467
22.903884316096427,120.27313922035222,7.833198893994092
22.90388465977663,120.27313950851673,7.776960862040519
22.90388490846554,120.27313979923946,7.720715481191873
22.903885063018937,120.2731400924595,7.664463976264
22.903885120869486,120.27314038823775,7.608201447993516
22.90388508218835,120.27314068645238,7.551934020459652
22.90388494663321,120.2731409869816,7.495658019214868
22.903884713348294,120.27314129006902,7.439374056667089
22.90388438147782,120.2731415953492,7.383080908000469
22.90388395067948,120.27314190294396,7.326781022846698
22.90388341992634,120.27314221273147,7.270472563982009
22.90388278887609,120.27314252471174,7.2141567562222475
22.903882056844107,120.27314283876295,7.157831762343645
22.903881223316926,120.2731431550069,7.1014994195699686
22.903880287609923,120.27314347319998,7.0451591154932975
22.903879248867323,120.27314379346399,6.98881085011363
22.90387810691797,120.2731441156771,6.932451561391353
22.90387686022146,120.27314443990025,6.876086148589849
22.903875509120112,120.27314476582887,6.819713386893272
22.903874052244674,120.2731450936457,6.763330214262008
22.903872488910533,120.273145423168,6.706939080327749
22.903870819459993,120.2731457545176,6.650539372682571
22.9038690421815,120.27314608757268,6.594131703734398
22.903867156903903,120.27314642221141,6.537716073483228
22.90386516277142,120.2731467584338,6.481291869521141
22.903863059612895,120.27314709630076,6.4248584794402115
22.90386084605909,120.27314743562954,6.36841774046421
22.903858521938844,120.27314777635927,6.31196842777729
22.90385608639638,120.27314811867264,6.255510541379452
22.903853538918234,120.27314846208239,6.199042856454849
22.90385087847747,120.27314880701488,6.1425684350430965
22.903848105074093,120.27314915322648,6.08608666473627
22.903845217681166,120.2731495007172,6.02959693312645
22.90384221561407,120.27314984918247,5.973097402989864
22.903839097845868,120.27315019886593,5.9165911363661285
22.903835864376564,120.27315054988942,5.86007752084732
22.90383251417922,120.27315090182654,5.803555944025516
22.903829046911532,120.27315125473824,5.7470251810848705
22.903825461546564,120.27315160856357,5.690490131288766
22.903821757742005,120.27315196342437,5.633945895373821
22.903817934128607,120.273152319077,5.577395535379648
22.903813990877534,120.27315267564329,5.520837826490402
22.90380992679069,120.27315303287956,5.464273381114006
22.90380574135461,120.27315339102951,5.407702811658382
22.903801434398144,120.27315374972763,5.351124893307685
22.903797004380888,120.27315410903485,5.294542075693607
22.903792451131686,120.27315446895118,5.237953746408224
22.903787773623606,120.2731548294766,5.181359293043613
22.90378297185665,120.2731551906111,5.124760552823544
22.90377804446157,120.27315555198926,5.068155076116323
22.90377299075375,120.27315591391562,5.011547149777412
22.90376781056203,120.27315627620742,4.954934324175119
22.903762503372942,120.27315663874286,4.898317211717367
22.90375706747494,120.27315700164377,4.841696424812078
22.903751502868012,120.2731573647274,4.785073188275098
22.903745809209855,120.27315772793285,4.728446889698505
22.903739985131224,120.27315809126013,4.671818753898143
22.903734030289808,120.27315845483103,4.6151869436502455
22.903727943829825,120.27315881821922,4.55855574581027
22.90372172506666,120.27315918172923,4.501923935562372
22.903715373658,120.27315954523922,4.445290288090706
22.903708888576908,120.2731599085665,4.388657865434885
22.90370226930992,120.27316027177196,4.332025442779064
22.903695515001264,120.27316063479468,4.275394244939089
22.903688624795155,120.27316099751285,4.218766109138727
22.90368159852044,120.27316135998738,4.162139198154211
22.903674435492498,120.27316172215737,4.105517186433077
22.903667134342086,120.27316208384008,4.04889701193571
22.90365969472689,120.27316244509642,3.9922823491096495
22.903652116304603,120.2731628059873,3.935673197954893
22.90364439787713,120.27316316626907,3.8790701708793636
22.903636539102166,120.27316352581994,3.8224744926989076
22.903628539123936,120.27316388494442,3.765884938597679
22.903620397086655,120.2731642432771,3.7093045706152914
22.903612112648016,120.27316460087884,3.652733388751745
22.903603684781086,120.27316495787149,3.596173230230808
22.903595113485864,120.27316531388958,3.539622870236635
22.9035863970508,120.27316566905493,3.4830853708088396
22.903577535304727,120.27316602324572,3.4265619567632672
22.90356852739188,120.27316637658377,3.3700514032840725
22.90355937279879,120.27316672882546,3.3135561600029466
22.90355007101198,120.27316708003167,3.257076839327812
22.90354062117569,120.27316743008059,3.200615278482437
22.903531022262975,120.27316777897224,3.144172702282667
22.90352127410268,120.27316812658476,3.0877484983205794
22.90351137583903,120.27316847304,3.031345116227865
22.903501326445095,120.27316881815523,2.9749637808203695
22.903491125407406,120.27316916180862,2.9186057169139383
22.90348077204134,120.27316950400018,2.8622721493244168
22.903470266346897,120.27316984485171,2.8059649152755735
22.90345960644137,120.27317018405869,2.749684627175331
22.903448792495908,120.27317052174291,2.6934331222474572
22.903437823483586,120.27317085778257,2.63720978808403
22.903426698719777,120.27317119217766,2.581019830152392
22.903415418033326,120.27317152486728,2.5248611050248146
22.903403979883837,120.2731718557296,2.4687375933527944
22.903392384442462,120.27317218488645,2.412648988932371
22.9033806301688,120.27317251197235,2.356599119313061
22.903368717234013,120.27317283723097,2.300587984494865
22.90335664461116,120.27317316054047,2.2446169623956083
22.903344411615628,120.27317348177903,2.1886894212588666
22.90333201756279,120.27317380094667,2.132805667288601
22.90331946142571,120.27317411792154,2.0769670784026384
22.903306743204396,120.27317443270366,2.0211770228445527
22.90329386221422,120.27317474523211,1.9654356537163256
22.90328081742825,120.27317505544599,1.9097451144456863
22.903267608161862,120.2731753633453,1.8541073953583835
22.90325423407275,120.27317566893004,1.798525711596012
22.903240694476292,120.27317597189564,1.7430006755664944
22.90322698885902,120.27317627248576,1.6875338182896376
22.90321311585169,120.27317657039585,1.6321298859268425
22.903199075625455,120.27317686574773,1.5767876536622643
22.903184866896652,120.27317715848048,1.5215095711275934
22.90317048992201,120.27317744828956,1.4662999251782893
22.903155943246716,120.27317773560134,1.4111588689163326
22.90314122695634,120.27317801992854,1.3560891581773757
22.90312634010953,120.27317830127114,1.3010937018990516
22.903111281679355,120.2731785798119,1.246172653183341
22.903096051494654,120.27317885536807,1.1913309112936257
22.903080649298698,120.27317912787876,1.1365686293318866
22.903065073807817,120.27317939728303,1.0818905534595251
22.903049324850862,120.27317966352001,1.0272953823097049
22.90303340191436,120.27317992646783,0.972787479288876
22.903017303885804,120.27318018624837,0.9183709781505167
22.903001030765196,120.27318044273976,0.8640460319966077
22.902984582039064,120.27318069563746,0.8098140952959656
22.902967956851633,120.27318094524604,0.7556816748827695
22.902951154689436,120.27318119144367,0.7016474693901836
22.90293417503901,120.27318143416943,0.6477144643068313
22.902917017472465,120.27318167317969,0.5938868699371814
22.902899681390753,120.27318190847446,0.5401675186678767
22.902882166365988,120.27318214011463,0.4865561042949557
22.90286447171355,120.27318236797838,0.4330564543679356
22.902846596919968,120.27318259218755,0.3796714778244495
22.902832337529144,120.27317811421699,2.7119762217402457
22.9028115405125,120.27318101663239,4.954738353639841
22.902782171943894,120.27318670043532,6.688914077937603
22.902746522739424,120.27318894222245,9.340601189315318
22.90270344581506,120.27319401942415,11.862640318632126
22.90265923233274,120.2731989961855,14.089764614224434
22.902619506375917,120.27320329782205,15.63674377155304
22.902586242907663,120.27320458174083,17.259036855220792
22.90255628393824,120.27320587680613,19.003534715056418
22.90252725810848,120.2732123448234,19.175773218512536
22.90250914232799,120.27321069014634,19.708482374191284
22.902503134428372,120.27320692670926,20.57863319456577
22.902508564421513,120.27320610010165,20.300127218723297
22.90252799827035,120.2731956870141,20.24008184671402
22.902553446437132,120.27317874207574,20.376141739726066
22.902578530385057,120.2731561963546,20.482806052446364
22.902604401904917,120.27312799929548,20.551439833164213
22.902632397293115,120.27309599795922,20.613469406843183
22.90266157750511,120.27306339133129,20.47160266190767
22.90268608893796,120.27303380735482,20.371580525517462
22.90269667259372,120.27301297536285,20.30144634538889
22.902687532805576,120.27300256937129,20.028443467140196
22.90266511135228,120.2729917159055,19.8164180457592
22.902637547532624,120.27297316386068,19.652858587384223
22.90260954452801,120.27294447568542,19.944163888812064
22.90258060752795,120.27291694680738,20.114604362607
22.90255223525539,120.27289553355268,20.202406511306762
22.902527556261326,120.27288207938845,20.124846272706986
22.902510675282034,120.27287327285919,20.109967209815977
22.902504950216848,120.27286837622475,20.12987414175272
22.902512317090963,120.2728671563222,20.08165804117918
22.902531731085766,120.27286483848913,20.042741967320442
22.902560603132322,120.27285698291494,20.009006864488125
22.902596111646993,120.2728406817176,20.285596003532408
22.902634016338364,120.27282154971961,20.476613383531568
22.902672066169583,120.27280110707864,20.61110796189308
22.902708655787833,120.27278156546188,20.437370283842085
22.90274164617752,120.27276548066202,20.34795627748966
22.90276681287912,120.27275919296837,20.31248438578844
22.90278171179239,120.27276604339292,20.048231591939924
22.902789740524746,120.27278147405143,19.83367202657461
22.90279393203684,120.27280492050748,19.652304970622062
22.902796094671892,120.27283541903016,19.959006207227706
22.902796982284205,120.27287469199786,20.150920152425766
22.902799952601963,120.27291809507993,20.264443433880803
22.902806870535258,120.27296380253402,20.29594692224264
22.90281624206792,120.2730106739754,20.353894184708594
22.90282624062868,120.2730575318948,20.42144032895565
22.90283583320864,120.27310256934052,20.26325291287899
22.90284549570562,120.27313956778202,20.159586949348448
22.902853992291472,120.27316512001352,20.103420569121838
22.902859369568727,120.27317969909136,19.443500814914703
22.902863363909713,120.27318516867433,18.891978487849233
22.90286514016127,120.27319102881128,18.426542342483994
22.90286629751462,120.27319832185252,18.657613650262356
22.90286638309236,120.27320897425487,18.737104198634622
22.90286722954178,120.27321815477063,18.696025099992752
22.902869048667785,120.27322570192779,18.66593504911661
22.902870707848997,120.2732332372075,18.65536366355419
22.902872213161434,120.27324082846339,18.64690753495693
22.902873835201905,120.27324806485846,18.6366778730154
22.902875484028208,120.27325490442585,18.625747616410255
22.902877035638202,120.27326143481481,18.614954539179802
22.902878480361597,120.27326767496834,18.60429374206066
22.902879835057213,120.27327361197352,18.59368928647041
22.902881098698114,120.27327924503854,18.583116676092146
22.90288226700541,120.2732845809853,18.57255508905649
22.902883340663728,120.2732896248693,18.562000850915908
22.902884322925022,120.27329438077153,18.551490706145763
22.902885216527775,120.27329885289475,18.541038127720356
22.902886023697015,120.27330304531993,18.530625968217848
22.902886747513534,120.27330696243257,18.520279948770998
22.90288739045909,120.2733106086791,18.510000069379807
22.90288795535775,120.27331398868866,18.49981327599287
22.902888444434527,120.27331710666402,18.489638730764387
22.90288886077023,120.27331996717345,18.479475208878515
22.90288920641872,120.27332257423697,18.46931291180849
22.90288948377617,120.27332493230102,18.45918613439798
22.902889694982033,120.27332704629929,18.44908507812023
22.902889843031524,120.27332892000818,18.439003618896006
22.902889929550618,120.27333055805686,18.428949105620383
22.902889957106648,120.2733319646481,18.418914189398286
22.90288992792464,120.2733331441674,18.408940513968467
22.902889843801724,120.273334101183,18.398957040011883
22.90288970721965,120.27333483983679,18.388971116423605
22.902889520489023,120.27333536433153,18.378966820597647
22.90288928523582,120.2733356794791,18.369007842957974
22.902889003685054,120.27333578911684,18.35910520684719
22.9028886778906,120.27333569763024,18.349235640764235
22.902888309991898,120.27333540977028,18.339444462895393
22.902887901786084,120.27333492931336,18.329724324345587
22.902887454984704,120.27333426082772,18.320119318485258
22.902886971983943,120.27333340839434,18.310509413361547
22.902886454238622,120.27333237682507,18.300875011920926
22.902885904059335,120.27333116995723,18.291208765268326
22.902885322986485,120.27332979205454,18.281509448587894
22.902884713501823,120.27332824762432,18.27177828669548
22.902884076974598,120.27332654105206,18.26198833364248
22.902883415800986,120.27332467647963,18.252187357246875
22.902882731778114,120.27332265817076,18.242365558981895
22.902882026788696,120.27332049063273,18.232481295108794
22.9028813028866,120.27331817788561,18.222670520186423
22.902880561868955,120.27331572461947,18.212951606452464
22.902879805618472,120.27331313491524,18.203395593225956
22.90287903610344,120.27331041285392,18.193865301132202
22.902878254864255,120.27330756324736,18.18435583090782
22.9028774635269,120.27330458981108,18.174869632184503
22.902876664658702,120.2733014971742,18.165407929778098
22.90287585954333,120.27329828953953,18.155974398136138
22.90287504980676,120.27329497123165,18.14655923873186
22.902874237845168,120.2732915467579,18.137173474907875
22.90287342537011,120.27328802007742,18.12780853295326
22.90287261375083,120.27328439581935,18.11846808731556
22.902871804955616,120.27328067788193,18.109149688363075
22.90287100103833,120.27327687101611,18.09985823535919
22.90287020353938,120.27327297912015,18.090591278672218
22.902869413913578,120.27326900682318,18.081347593486306
22.90286863481384,120.27326495820617,18.072125954985616
22.902867867352672,120.27326083771553,18.062932487249373
22.902867113327208,120.27325664979769,18.053756166934967
22.90286637470574,120.27325239822903,18.044614141464233
22.90286565285751,120.2732480879433,18.035489263415336
22.902864950178692,120.27324372302142,18.02639378094673
22.902864267610642,120.27323930784891,18.017322794795035
22.902863607635116,120.27323484638491,18.008271405696867
22.9028629714502,120.27323034344131,17.999251861810684
22.902862361109765,120.27322580309905,17.99025436460972
22.902861778410937,120.27322122962184,17.981282588541507
22.90286122472296,120.27321662745608,17.972340208053588
22.90286070201413,120.27321200092638,17.963417424619198
22.902860211568104,120.27320735429643,17.954527711212634
22.90285975560991,120.27320269195174,17.945656370043753
22.902859335851097,120.2731980182169,17.936820548534392
22.902858954088803,120.27319333735562,17.928004324078557
22.902858611093222,120.2731886538143,17.91921994483471
22.902858309688426,120.27318397179572,17.910461286723613
22.90285805124365,120.27317929568541,17.901727124929426
22.90285783712815,120.27317462986885,17.89302603316307
22.9028576693102,120.27316997854884,17.88434453845024
22.902857549586944,120.27316534629361,17.875697338581084
22.902857479242044,120.27316073724505,17.86707708466053
22.90285853972139,120.27315229842857,18.98527271080017
22.902857128972354,120.27314546300305,19.87469845813513
22.902856055057303,120.27313264153992,20.55676778209209
22.902856020483895,120.27311484879732,20.27692430734634
22.902857834218505,120.27309031817634,20.241497733831405
22.902857949748455,120.27306719192339,20.36494937252998
22.90285528297494,120.27304775327475,20.289463971972463
22.90285275569314,120.2730276828082,20.23026739734411
22.902850956677902,120.27300669443017,20.203165897130965
22.902849469336793,120.27298564562957,20.18934629994631
22.902848209974778,120.27296532975723,20.168645687341687
22.90284705227912,120.27294620917984,20.14555913347006
22.902845862919698,120.27292819372036,20.17382420873642
22.902844670650634,120.27291063749072,20.19314690351486
22.902843902162534,120.27289233557222,20.205538365423678
22.902843618557906,120.27287301030726,20.179406919360158
22.902843279156592,120.27285268581618,20.162526507377624
22.90284207165469,120.27283161941263,20.15130964386463
22.90283970816868,120.27280974668444,20.160668461740016
22.902837283409013,120.2727878946047,20.163354482889176
22.90283645766941,120.2727668989175,20.162379529476166
22.902837894348497,120.27274793190907,20.171185955405235
22.902838083304143,120.2727342187866,20.178865550756452
22.90283194130421,120.27272858965027,20.187464982807636
22.902816507957958,120.2727315264036,20.14136903846264
22.90279541484233,120.27273712083654,20.111553346335885
22.90277428193306,120.27274089816108,20.087440396785734
22.902756358702476,120.27274147631739,20.188497502565383
22.90274024561224,120.27274204861115,20.252714597344397
22.90272397240605,120.27274317963098,20.29548516666889
22.90270657796032,120.2727445828874,20.22926794761419
22.902688553320118,120.27274541337802,20.192067840754984
22.90267030977206,120.2727465974351,20.171877976357937
