Latitude,Longitude,Altitude (m)
-49.91751,110.22431,11299.091
-49.891132,110.23494,11303.171
-49.861603,110.24472,11300.015
-49.83757,110.25394,11306.428
-49.810673,110.26408,11313.522
-49.780384,110.274055,11311.627
-49.75433,110.28429,11312.138
-49.730194,110.2963,11319.71
-49.702408,110.30934,11324.41
-49.67419,110.32194,11325.51
-49.64776,110.33412,11327.223
-49.62295,110.34643,11334.035
-49.59497,110.35897,11336.737
-49.570038,110.37101,11346.113
-49.541794,110.38323,11353.181
-49.512444,110.39497,11354.973
-49.483845,110.40626,11350.908
-49.46101,110.41739,11356.017
-49.434856,110.42931,11360.029
-49.40551,110.44089,11353.504
-49.38183,110.45164,11351.213
-49.355553,110.46284,11342.151
-49.33266,110.47366,11334.719
-49.30823,110.48462,11321.758
-49.287434,110.49526,11313.211
-49.26479,110.50623,11302.744
-49.24714,110.51707,11308.36
-49.22296,110.52885,11316.175
-49.195526,110.54013,11323.47
-49.16818,110.55102,11333.99
-49.13954,110.56208,11346.379
-49.10815,110.57312,11353.16
-49.074688,110.58366,11344.786
-49.050262,110.593575,11342.113
-49.025978,110.604614,11340.676
-49.003254,110.61599,11345.475
-48.97862,110.62764,11353.6875
-48.948334,110.639,11350.242
-48.923847,110.64935,11352.039
-48.895996,110.66021,11346.043
-48.872177,110.67059,11343.154
-48.849823,110.68145,11347.273
-48.823826,110.692825,11349.089
-48.798855,110.70375,11354.135
-48.77203,110.71475,11357.767
-48.746246,110.7256,11364.648
-48.71755,110.736565,11366.348
-48.69102,110.74716,11368.738
-48.66302,110.75785,11365.15
-48.639885,110.76833,11368.656
-48.61366,110.77942,11369.092
-48.590244,110.79021,11376.911
-48.562393,110.8014,11379.853
-48.534977,110.812035,11380.0205
-48.50715,110.82246,11373.31
-48.483456,110.832596,11369.007
-48.462036,110.84321,11372.614
-48.436325,110.854416,11373.062
-48.412132,110.865166,11377.219
-48.38559,110.876,11379.06
-48.359783,110.8865,11381.447
-48.33227,110.89694,11378.48
-48.308395,110.907036,11380.131
-48.283646,110.917625,11383.385
-48.257866,110.928314,11386.234
-48.231693,110.93886,11387.985
-48.207035,110.94927,11393.707
-48.179134,110.959915,11393.479
-48.153175,110.970085,11392.493
-48.12902,110.980316,11394.462
-48.103916,110.99087,11396.502
-48.079384,111.00134,11401.148
-48.0526,111.01189,11402.269
-48.026848,111.022064,11402.838
-48.00118,111.03225,11401.726
-47.977264,111.042404,11403.362
-47.95255,111.05279,11405.536
-47.928185,111.06314,11410.451
-47.9017,111.07358,11412.577
-47.875175,111.08366,11411.675
-47.850166,111.09357,11410.662
-47.82719,111.103645,11415.15
-47.799774,111.11416,11411.682
-47.77647,111.12399,11412.535
-47.75209,111.13421,11413.513
-47.728226,111.14441,11417.431
-47.701897,111.1547,11417.688
-47.67747,111.164635,11420.662
-47.651627,111.174774,11421.8955
-47.62625,111.18475,11422.713
-47.600525,111.194756,11421.076
-47.57643,111.20463,11421.247
-47.55262,111.21473,11423.728
-47.527393,111.224976,11425.171
-47.502514,111.23501,11427.388
-47.47768,111.24506,11431.116
-47.450977,111.255165,11430.874
-47.425167,111.26493,11428.544
-47.402016,111.27469,11430.863
-47.377018,111.284904,11432.354
-47.351723,111.29496,11432.889
-47.32779,111.30486,11436.946
-47.301003,111.314995,11436.28
-47.276707,111.32474,11438.465
-47.252213,111.33472,11442.843
-47.225613,111.344826,11443.979
-47.19983,111.35462,11444.158
-47.175346,111.36441,11446.329
-47.149857,111.37443,11447.307
-47.124516,111.38435,11447.574
-47.099724,111.39423,11448.314
-47.0742,111.40419,11447.057
-47.049534,111.41403,11445.725
-47.026566,111.42391,11449.508
-47.003624,111.434166,11461.115
-46.975674,111.44474,11469.387
-46.94663,111.45473,11473.049
-46.918198,111.464355,11472.076
-46.892128,111.47384,11470.155
-46.8693,111.483635,11475.032
-46.841988,111.49404,11473.027
-46.81767,111.503784,11473.254
-46.792427,111.513756,11471.58
-46.76617,111.523544,11463.801
-46.744484,111.53296,11462.356
-46.72266,111.54302,11467.511
-46.698166,111.553474,11475.343
-46.670784,111.56382,11480.851
-46.641453,111.57366,11478.55
-46.616978,111.582924,11481.534
-46.59017,111.59282,11480.772
-46.56348,111.6025,11475.603
-46.541836,111.611946,11479.842
-46.51303,111.62222,11470.855
-46.492626,111.63138,11474.043
-46.469505,111.641594,11481.97
-46.442833,111.65193,11488.765
-46.413155,111.661835,11487.067
-46.38921,111.67103,11492.985
-46.36125,111.68099,11493.3
-46.335968,111.69058,11496.171
-46.3111,111.70046,11502.19
-46.284092,111.71061,11506.305
-46.25608,111.72048,11504.869
-46.231396,111.729904,11506.299
-46.20581,111.73968,11506.559
-46.18158,111.7494,11510.106
-46.154922,111.75936,11509.525
-46.129326,111.7689,11507.906
-46.105217,111.778366,11508.444
-46.079456,111.78808,11505.648
-46.056488,111.797485,11508.267
-46.03229,111.807274,11513.766
-46.003727,111.81716,11510.422
-45.979416,111.82624,11510.444
-45.955772,111.83573,11514.762
-45.929142,111.84559,11515.688
-45.90317,111.855034,11515.57
-45.87935,111.86441,11520.516
-45.853996,111.874214,11527.139
-45.82534,111.884056,11526.643
-45.80116,111.89323,11532.242
-45.7731,111.902985,11531.346
-45.748802,111.912224,11534.876
-45.72233,111.92192,11535.222
-45.697296,111.931366,11536.94
-45.673088,111.94093,11542.492
-45.64551,111.95076,11542.416
-45.620388,111.96006,11544.1875
-45.595753,111.96958,11548.858
-45.569736,111.97934,11553.087
-45.542633,111.98893,11554.489
-45.51666,111.99831,11555.654
-45.489902,112.00776,11552.778
-45.462826,112.01697,11542.047
-45.440613,112.02574,11534.184
-45.421093,112.03494,11535.921
-45.397305,112.04491,11537.121
-45.37326,112.05444,11540.857
-45.34579,112.063934,11538.469
-45.320435,112.07279,11535.992
-45.29688,112.08176,11537.519
-45.273075,112.09109,11543.416
-45.247875,112.10065,11552.374
-45.221355,112.1102,11563.368
-45.190605,112.119774,11564.885
-45.162334,112.12852,11562.366
-45.134884,112.13729,11552.891
-45.115284,112.14586,11556.605
-45.08973,112.155785,11555.114
-45.069065,112.165016,11566.42
-45.039585,112.17513,11566.222
-45.013767,112.18395,11566.763
-44.985943,112.192955,11558.882
-44.96409,112.2015,11558.238
-44.940025,112.21083,11556.744
-44.913937,112.22009,11548.58
-44.892914,112.22866,11547.547
-44.871876,112.23783,11554.678
-44.84704,112.24747,11562.977
-44.81753,112.25682,11561.99
-44.790924,112.26526,11559.114
-44.76825,112.27381,11563.704
-44.742054,112.28424,11565.227
-44.71749,112.29525,11569.813
-44.690964,112.30675,11571.344
-44.66382,112.31799,11566.656
-44.64291,112.32863,11572.7
-44.61748,112.34012,11576.454
-44.590885,112.35119,11576.624
-44.56353,112.36187,11569.182
-44.54575,112.37185,11581.397
-44.518013,112.38361,11585.512
-44.490532,112.39436,11585.446
-44.46564,112.404594,11587.326
-44.442177,112.41509,11594.985
-44.414673,112.426125,11597.131
-44.383846,112.4367,11582.533
-44.3507,112.44639,11534.041
-44.335873,112.45412,11489.723
-44.32771,112.46336,11456.482
-44.315426,112.47395,11422.064
-44.304283,112.48393,11393.818
-44.29122,112.493805,11370.458
-44.27735,112.503365,11356.186
-44.25494,112.51311,11331.239
-44.236668,112.521484,11311.317
-44.218395,112.530205,11297.16
-44.19685,112.5394,11280.768
-44.175632,112.54827,11264.578
-44.152374,112.557274,11241.838
-44.133236,112.5658,11223.304
-44.12013,112.574585,11228.636
-44.091934,112.58533,11217.966
-44.062885,112.59437,11191.584
-44.04207,112.60228,11167.138
-44.024143,112.610916,11147.535
-44.002575,112.620384,11120.297
-43.982246,112.62933,11087.282
-43.965168,112.63795,11054.543
-43.951187,112.646675,11029.46
-43.935547,112.656,11008.964
-43.918804,112.6652,10995.579
-43.895645,112.674614,10974.207
-43.8747,112.68307,10953.057
-43.8563,112.69147,10939.328
-43.835815,112.70045,10928.951
-43.81228,112.70963,10915.705
-43.798794,112.71773,10935.017
-43.772007,112.72815,10955.007
-43.73755,112.73809,10962.447
-43.70702,112.74666,10969.734
-43.678635,112.75555,10980.141
-43.647655,112.76529,10983.245
-43.618195,112.77489,10980.088
-43.593216,112.784355,10979.414
-43.570183,112.794334,10984.4
-43.546265,112.80483,10993.032
-43.52092,112.8153,11004.696
-43.489784,112.825966,11003.743
-43.461037,112.83568,10994.717
-43.442833,112.84473,11005.56
-43.415737,112.8558,11009.686
-43.389305,112.86612,11012.55
-43.3622,112.876305,11010.658
-43.336853,112.886215,11007.234
-43.311893,112.896225,11000.6875
-43.28929,112.906105,10996.367
-43.26789,112.91615,10998.028
-43.246517,112.926384,11008.703
-43.215996,112.9374,11003.384
-43.190414,112.946785,10997.288
-43.169025,112.956085,10999.692
-43.144466,112.966324,11001.482
-43.120586,112.976326,11007.31
-43.096836,112.986336,11020.144
-43.065216,112.997055,11017.96
-43.041233,113.00622,11023.562
-43.01218,113.01643,11018.066
-42.986088,113.02604,11008.471
-42.9667,113.03532,11011.165
-42.942078,113.045876,11010.223
-42.92222,113.05559,11024.309
-42.894814,113.066345,11034.29
-42.864536,113.076584,11035.095
-42.834484,113.08618,11024.567
-42.811825,113.095116,11018.937
-42.792473,113.104706,11025.669
-42.768044,113.115364,11032.152
-42.740154,113.12577,11031.086
-42.71401,113.13534,11027.258
-42.690414,113.14476,11025.588
-42.668045,113.15442,11029.593
-42.643436,113.1645,11034.419
-42.616558,113.17456,11035.095
-42.591316,113.18414,11036.196
-42.56288,113.194046,11025.624
-42.54141,113.203,11021.986
-42.52064,113.21262,11025.901
-42.4984,113.22267,11036.587
-42.46931,113.2331,11037.105
-42.446327,113.242134,11047.966
-42.415977,113.252396,11046.159
-42.390007,113.26164,11044.38
-42.36589,113.27105,11044.585
-42.34125,113.28082,11044.294
-42.316357,113.29061,11042.098
-42.293358,113.300156,11043.375
-42.269478,113.30992,11045.929
-42.244415,113.31968,11047.872
-42.21753,113.32944,11043.59
-42.195995,113.338425,11049.215
-42.1695,113.348495,11049.395
-42.144016,113.35799,11048.284
-42.11903,113.36739,11046.053
-42.09554,113.376785,11046.456
-42.07056,113.38649,11044.611
-42.04608,113.396034,11042.19
-42.02382,113.40537,11045.956
-42.002594,113.41487,11061.66
-41.972786,113.42536,11067.481
-41.944687,113.43473,11071.099
-41.91848,113.44391,11075.95
-41.89033,113.453575,11074.106
-41.866817,113.46269,11077.883
-41.841827,113.472466,11081.605
-41.81362,113.4825,11075.498
-41.793156,113.49138,11081.672
-41.766678,113.501595,11081.258
-41.74038,113.511215,11076.284
-41.716564,113.52043,11071.976
-41.6914,113.53002,11061.947
-41.671642,113.53899,11061.707
-41.650417,113.5487,11067.79
-41.62685,113.55851,11078.365
-41.59675,113.56859,11077.393
-41.571747,113.57734,11080.34
-41.54418,113.586754,11076.971
-41.518612,113.5959,11071.548
-41.497574,113.60481,11075.568
-41.47055,113.614845,11070.956
-41.44583,113.62411,11064.663
-41.42646,113.63289,11071.755
-41.40255,113.64274,11081.218
-41.37227,113.652794,11078.004
-41.34736,113.66152,11077.607
-41.32207,113.670715,11075.957
-41.29638,113.680084,11070.521
-41.274296,113.68904,11070.744
-41.250576,113.69848,11071.938
-41.225876,113.70792,11072.663
-41.20339,113.71698,11080.916
-41.17695,113.726616,11087.023
-41.14912,113.73603,11088.912
-41.122692,113.7451,11089.485
-41.09933,113.75393,11096.715
-41.072464,113.76355,11100.126
-41.04236,113.77321,11089.269
-41.02165,113.78145,11089.017
-40.99746,113.79102,11085.954
-40.973995,113.800385,11083.304
-40.95213,113.80947,11086.429
-40.926434,113.8191,11085.372
-40.902374,113.828125,11086.361
-40.877487,113.83727,11086.688
-40.856068,113.84603,11098.58
-40.827045,113.85595,11101.391
-40.79715,113.8652,11092.65
-40.776524,113.87321,11096.856
-40.750698,113.88276,11096.189
-40.72779,113.89176,11101.462
-40.70153,113.901276,11103.172
-40.67348,113.91069,11096.129
-40.64987,113.91937,11091.004
-40.62995,113.928085,11097.051
-40.605236,113.937775,11102.522
-40.577446,113.947334,11101.292
-40.553543,113.95601,11104.729
-40.52787,113.96517,11106.923
-40.500008,113.97453,11100.96
-40.47466,113.98334,11092.003
-40.458652,113.991356,11106.67
-40.431694,114.00164,11115.07
-40.403576,114.01103,11119.2
-40.3749,114.020035,11116.515
-40.349102,114.02866,11112.6455
-40.325584,114.03743,11111.069
-40.30279,114.04648,11113.327
-40.27811,114.055824,11115.017
-40.25372,114.064896,11118.3545
-40.220608,114.074974,11095.167
-40.191196,114.083755,11049.218
-40.178856,114.090866,11018.511
-40.162384,114.1004,10983.206
-40.148266,114.10951,10951.606
-40.13279,114.11871,10920.729
-40.118385,114.127365,10897.279
-40.101368,114.1361,10877.972
-40.07934,114.14495,10852.528
-40.055355,114.153244,10816.62
-40.03916,114.16028,10791.572
-40.020344,114.16857,10767.565
-40.001495,114.17763,10747.894
-39.97853,114.18782,10721.221
-39.958134,114.19741,10695.405
-39.936962,114.20721,10665.808
-39.91711,114.21676,10635.108
-39.898262,114.226166,10604.949
-39.88124,114.23537,10580.852
-39.862564,114.24485,10559.096
-39.84073,114.25441,10532.582
-39.81953,114.26344,10503.76
-39.797462,114.27256,10468.228
-39.780495,114.28095,10439.571
-39.7636,114.2898,10417.742
-39.743286,114.299126,10395.391
-39.72353,114.30793,10377.719
-39.70109,114.316956,10358.466
-39.677288,114.32588,10334.833
-39.65509,114.33445,10310.998
-39.63458,114.34304,10290.887
-39.61106,114.352325,10264.628
-39.590183,114.36109,10239.7
-39.571125,114.36981,10220.638
-39.549473,114.37902,10200.618
-39.52691,114.388214,10178.394
-39.505566,114.397026,10158.01
-39.480713,114.40641,10127.51
-39.459377,114.41509,10095.802
-39.441338,114.42368,10070.19
-39.421944,114.43283,10046.634
-39.40256,114.441826,10027.613
-39.380527,114.45102,10007.183
-39.357243,114.46001,9983.411
-39.336365,114.46852,9964.322
-39.312546,114.47779,9940.5
-39.289177,114.486916,9913.542
-39.26574,114.49618,9880.642
-39.24749,114.504715,9855.876
-39.226547,114.51416,9830.096
-39.21841,114.5211,9849.599
-39.19662,114.53047,9882.757
-39.160267,114.540535,9900.731
-39.124767,114.548836,9911.655
-39.090656,114.557076,9914.914
-39.060642,114.56549,9916.548
-39.031612,114.57488,9912.748
-39.00726,114.58418,9913.412
-38.982567,114.59422,9914.474
-38.958454,114.6043,9917.246
-38.93581,114.614006,9928.247
-38.907578,114.624535,9932.455
-38.880554,114.63436,9935.213
-38.855804,114.64389,9942.366
-38.8301,114.653824,9950.581
-38.798557,114.66473,9940.952
-38.77488,114.674,9934.978
-38.75384,114.68358,9936.403
-38.73105,114.69375,9940.591
-38.706036,114.704,9943.287
-38.68086,114.71393,9945.921
-38.656296,114.72362,9950.871
-38.627262,114.73408,9943.56
-38.60295,114.743515,9937.237
-38.57952,114.75327,9931.302
-38.557533,114.76304,9929.364
-38.533363,114.77326,9924.966
-38.511536,114.78278,9927.169
-38.487328,114.79264,9929.918
-38.46114,114.802574,9929.223
-38.43716,114.811874,9932.69
-38.410336,114.82178,9931.159
-38.38557,114.831154,9930.751
-38.359203,114.841034,9924.57
-38.336937,114.85025,9924.416
-38.313755,114.85989,9926.801
-38.289127,114.86967,9928.86
-38.26566,114.879005,9936.063
-38.240902,114.88845,9946.004
-38.210114,114.89875,9940.746
-38.18457,114.9078,9934.935
-38.161686,114.91697,9932.077
-38.139816,114.926346,9934.371
-38.114902,114.93642,9933.006
-38.09442,114.94532,9944.099
-38.069668,114.955055,9956.514
-38.042206,114.964775,9965.76
-38.010666,114.97488,9958.924
-37.986546,114.98356,9955.951
-37.96252,114.993126,9951.572
-37.9401,115.002716,9949.682
-37.917854,115.01233,9950.615
-37.89603,115.021706,9957.766
-37.869186,115.03181,9957.309
-37.843433,115.041245,9953.847
-37.8181,115.050674,9946.398
-37.795467,115.05979,9941.478
-37.77584,115.06867,9947.668
-37.751587,115.07848,9952.882
-37.72637,115.08795,9957.669
-37.6976,115.09781,9950.897
-37.674225,115.1065,9947.645
-37.65075,115.115715,9944.549
-37.62723,115.12511,9941.154
-37.603794,115.13452,9937.52
-37.58492,115.14302,9948.871
-37.55487,115.15369,9941.54
-37.53034,115.16249,9934.461
-37.51068,115.17078,9939.621
-37.485172,115.18052,9939.431
-37.46081,115.18966,9939.699
-37.437378,115.1986,9943.163
-37.410427,115.20826,9938.757
-37.386192,115.21724,9934.298
-37.36582,115.22569,9940.257
-37.342365,115.234924,9949.018
-37.316326,115.244354,9955.762
-37.285484,115.25444,9945.528
-37.262436,115.26286,9939.922
-37.241127,115.27169,9939.748
-37.220924,115.28059,9949.868
-37.199944,115.28942,9972.774
-37.167175,115.29997,9976.461
-37.13858,115.3089,9975.293
-37.113136,115.317696,9973.465
-37.087616,115.327095,9966.716
-37.065704,115.33605,9964.127
-37.040936,115.34589,9954.276
-37.01857,115.35521,9943.947
-37.00146,115.363655,9948.711
-36.97808,115.3734,9951.499
-36.949577,115.38344,9940.723
-36.929935,115.391304,9943.751
-36.906113,115.40045,9946.122
-36.87812,115.410164,9937.004
-36.854565,115.41879,9928.715
-36.83463,115.42711,9930.067
-36.811268,115.43634,9930.97
-36.787487,115.4453,9932.723
-36.76503,115.453735,9941.414
-36.738117,115.46298,9944.777
-36.712902,115.47163,9949.049
-36.687943,115.48029,9954.315
-36.66153,115.489334,9955.723
-36.635807,115.4983,9954.099
-36.611095,115.50728,9950.112
-36.586353,115.51651,9941.322
-36.56563,115.525085,9938.498
-36.544548,115.534004,9940.047
-36.518536,115.543785,9932.502
-36.497154,115.552246,9931.3
-36.4764,115.56072,9938.2295
-36.449234,115.57035,9935.775
-36.42758,115.57837,9943.46
-36.40121,115.58754,9946.038
-36.374996,115.59642,9945.343
-36.349354,115.6053,9940.987
-36.326317,115.61389,9939.034
-36.30155,115.623116,9932.373
-36.277706,115.632195,9922.627
-36.257957,115.640594,9921.306
-36.235302,115.64966,9919.836
-36.212437,115.658455,9920.135
-36.190792,115.66677,9928.284
-36.167015,115.675354,9940.496
-36.1378,115.68467,9942.678
-36.11058,115.69323,9940.914
-36.08793,115.70114,9946.37
-36.060654,115.71053,9942.448
-36.03919,115.71867,9947.259
-36.015636,115.72758,9953.222
-35.991367,115.73641,9960.3
-35.96421,115.745674,9959.97
-35.94103,115.75396,9964.449
-35.916862,115.7627,9969.492
-35.893665,115.771225,9979.114
-35.864895,115.7809,9975.839
-35.84011,115.78945,9971.282
-35.818195,115.797844,9970.143
-35.79485,115.80687,9966.665
-35.775585,115.81499,9974.587
-35.747837,115.824905,9968.149
-35.7275,115.83274,9972.136
-35.70371,115.841545,9974.1875
-35.678387,115.850426,9971.235
-35.657223,115.858284,9976.35
-35.631958,115.86726,9976.052
-35.60943,115.87543,9980.179
-35.5836,115.88441,9977.652
-35.561966,115.89236,9981.828
-35.537376,115.90113,9982.933
-35.512405,115.90989,9980.1875
-35.490395,115.91802,9982.1
-35.464203,115.927246,9974.488
-35.44274,115.935326,9971.646
-35.421932,115.94358,9974.39
-35.402496,115.95153,9989.591
-35.37398,115.961075,9992.703
-35.3465,115.96975,9989.019
-35.320606,115.9777,9979.525
-35.30098,115.98285,9980.34
-35.281723,115.98644,9992.795
-35.24713,115.99153,9972.201
-35.233276,115.98955,9984.546
-35.20638,115.99048,9985.785
-35.177704,115.99095,9975.973
-35.153805,115.99032,9967.749
-35.13263,115.98965,9966.581
-35.114265,115.98862,9982.887
-35.087433,115.98936,9994.9375
-35.061516,115.98907,10011.801
-35.02724,115.9903,10008.041
-35.001724,115.98962,10008.056
-34.974125,115.99034,9999.249
-34.954052,115.98984,10002.874
-34.930313,115.99068,10005.854
-34.9054,115.99151,10007.068
-34.883392,115.991394,10016.612
-34.856133,115.9924,10019.541
-34.828697,115.99313,10016.526
-34.806194,115.99284,10021.521
-34.780075,115.993744,10021.653
-34.755642,115.994156,10023.235
-34.730583,115.99477,10023.045
-34.70579,115.995316,10022.032
-34.68105,115.99595,10019.742
-34.659615,115.99595,10026.527
-34.63328,115.99701,10028.306
-34.606712,115.99775,10026.143
-34.58244,115.99803,10025.841
-34.55829,115.998436,10026.89
-34.531395,115.999504,10020.577
-34.50929,115.99943,10021.467
-34.48403,116.00027,10018.624
-34.45901,116.00094,10013.535
-34.435776,116.00128,10010.793
-34.417736,116.000534,10027.612
-34.39024,116.001785,10038.098
-34.360203,116.00282,10038.998
-34.33545,116.00248,10045.201
-34.307835,116.00321,10044.938
-34.281986,116.00372,10042.283
-34.25827,116.00407,10041.313
-34.233784,116.004875,10038.053
-34.2126,116.00494,10042.632
-34.185402,116.00613,10036.042
-34.15298,116.00641,10000.509
-34.136597,116.000465,9978.169
-34.124046,115.99206,9973.284
-34.104244,115.98415,9967.861
-34.084526,115.97532,9969.348
-34.065258,115.966125,9983.943
-34.044144,115.95721,10012.484
-34.012814,115.9501,10029.959
-33.984257,115.9417,10049.151
-33.951252,115.93468,10052.987
-33.90819,115.93052,10001.692
