Latitude,Longitude,Altitude (m)
22.903667,120.273735,13.928539
22.903696,120.27376,13.777032
22.903727,120.27378,13.625514
22.903757,120.273796,13.474016
22.903786,120.27382,13.322519
22.903816,120.27384,13.171032
22.903847,120.27386,13.019554
22.903875,120.27388,12.868067
22.903906,120.2739,12.71661
22.903936,120.27392,12.565184
22.903965,120.27394,12.413757
22.903996,120.273964,12.2623205
22.904024,120.27398,12.110965
22.904053,120.27399,11.9595785
22.904083,120.27401,11.808213
22.904112,120.27403,11.6568985
22.90414,120.27405,11.505584
22.904171,120.27407,11.3543
22.904198,120.27409,11.203035
22.904228,120.27411,11.051832
22.904257,120.27413,10.900608
22.904285,120.274155,10.749466
22.904314,120.27417,10.598325
22.904343,120.27419,10.447203
22.904371,120.2742,10.296111
22.9044,120.27422,10.145101
22.904428,120.27425,9.99407
22.904457,120.27426,9.843101
22.904486,120.274284,9.692192
22.904514,120.27431,9.541273
22.904541,120.27432,9.390445
22.90457,120.274345,9.239638
22.904598,120.27435,9.088892
22.904625,120.274376,8.938166
22.904654,120.27439,8.7875
22.904682,120.274414,8.636855
22.90471,120.27444,8.486302
22.904737,120.27445,8.335758
22.904766,120.274475,8.1852865
22.904793,120.27448,8.034855
22.90482,120.274506,7.884484
22.904848,120.27453,7.7341437
22.904875,120.27454,7.5839148
22.904902,120.27457,7.4337063
22.90493,120.27459,7.283549
22.904957,120.2746,7.1334624
22.904984,120.27462,6.9834166
22.90501,120.274635,6.8334618
22.905039,120.27466,6.683548
22.905064,120.27468,6.5336947
22.905092,120.2747,6.383913
22.905119,120.27471,6.234202
22.905144,120.27473,6.0845723
22.90517,120.27475,5.934973
22.9052,120.274765,5.785465
22.905224,120.27479,5.636008
22.90525,120.274796,5.486642
22.905277,120.27482,5.337327
22.905304,120.27484,5.188103
22.905329,120.27486,5.0389504
22.905355,120.27487,4.889869
22.905382,120.27489,4.740889
22.905407,120.27491,4.59196
22.905434,120.27493,4.4431014
22.90546,120.27495,4.2943344
22.905485,120.27496,4.145639
22.905512,120.27498,3.997014
22.905537,120.275,3.8484704
22.905563,120.275024,3.700059
22.905588,120.27503,3.551688
22.905613,120.275055,3.4033983
22.90564,120.27507,3.2552202
22.905664,120.27509,3.1071231
22.90569,120.2751,2.9591074
22.905716,120.27512,2.811173
22.905739,120.27514,2.66334
22.905766,120.275154,2.5155983
22.90579,120.27517,2.3679278
22.905815,120.27519,2.2203994
22.90584,120.275215,2.0729218
22.905865,120.27522,1.9255557
22.90589,120.275246,1.7782811
22.905914,120.27526,1.6310978
22.90594,120.275276,1.4840262
22.905964,120.27529,1.3370459
22.905989,120.275314,1.1901572
22.906012,120.27532,1.0433799
22.906036,120.275345,0.8966839
22.906061,120.27537,0.75009954
22.906084,120.275375,0.603637
22.906109,120.2754,0.45724553
22.906134,120.27541,0.310986
22.906158,120.27543,0.16481785
22.906181,120.275444,0.018781673
22.906204,120.27547,-0.12718345
22.906229,120.275475,-0.27302676
22.906252,120.2755,-0.41874826
22.906277,120.27551,-0.56436825
22.9063,120.27553,-0.7098867
22.906324,120.27554,-0.8552834
22.906345,120.275566,-1.0005684
22.90637,120.27557,-1.145762
22.906395,120.2756,-1.2908236
22.906418,120.27562,-1.4357432
22.906439,120.27563,-1.5805917
22.906464,120.27565,-1.725298
22.906487,120.27566,-1.8698827
22.90651,120.27568,-2.0143962
22.906532,120.275696,-2.1587372
22.906555,120.27571,-2.3029866
22.906578,120.27573,-2.4471145
22.9066,120.27574,-2.5911
22.906624,120.27576,-2.7349942
22.906647,120.27578,-2.878736
22.90667,120.27579,-3.0223765
22.90669,120.27581,-3.1658952
22.906713,120.27582,-3.309282
22.906736,120.27584,-3.4525468
22.90676,120.27585,-3.5956695
22.90678,120.27587,-3.7386909
22.906803,120.27589,-3.8815598
22.906826,120.2759,-4.0243173
22.906849,120.27592,-4.1669326
22.906868,120.27593,-4.3094563
22.90689,120.27595,-4.4518075
22.906914,120.27596,-4.594037
22.906937,120.27598,-4.7361345
22.906956,120.27599,-4.87811
22.906979,120.27601,-5.0199437
22.907001,120.276024,-5.1616454
22.907022,120.27604,-5.3032045
22.907043,120.276054,-5.4446526
22.907064,120.27607,-5.5859685
22.907087,120.276085,-5.727122
22.907108,120.2761,-5.8681636
22.907127,120.276115,-6.0090327
22.90715,120.27613,-6.1497903
22.907171,120.276146,-6.290416
22.907194,120.27616,-6.430889
22.907213,120.27618,-6.57121
22.907234,120.27619,-6.711409
22.907255,120.27621,-6.8514767
22.907276,120.27622,-6.9914017
22.907297,120.27624,-7.131144
22.907318,120.27625,-7.2708154
22.90734,120.27626,-7.4102836
22.90736,120.27628,-7.54961
22.90738,120.27629,-7.688804
22.9074,120.27631,-7.827856
22.907421,120.27632,-7.9667864
22.907442,120.276344,-8.105544
22.907461,120.27635,-8.24415
22.90748,120.27637,-8.382613
22.907501,120.27638,-8.520975
22.907522,120.2764,-8.659103
22.907541,120.27641,-8.79712
22.90756,120.27643,-8.935015
22.907581,120.27644,-9.072737
22.907602,120.27646,-9.210348
22.907621,120.27647,-9.347755
22.90764,120.27649,-9.485031
22.907661,120.2765,-9.622165
22.90768,120.27652,-9.759115
22.907701,120.27653,-9.895954
22.907719,120.276535,-10.032631
22.90774,120.27656,-10.169115
22.907759,120.276566,-10.305477
22.907778,120.27659,-10.441707
22.907797,120.276596,-10.5777445
22.907816,120.27661,-10.71366
22.907835,120.27663,-10.849382
22.907856,120.276634,-10.984983
22.907875,120.27665,-11.120391
22.907892,120.276665,-11.255697
22.907911,120.27668,-11.39077
22.90793,120.27669,-11.525742
22.907951,120.27671,-11.660541
22.907969,120.27672,-11.7951765
22.907988,120.276726,-11.92965
22.908007,120.27675,-12.064003
22.908026,120.27676,-12.198141
22.908045,120.27677,-12.332149
22.908062,120.27679,-12.465973
22.908081,120.2768,-12.599665
22.908098,120.27681,-12.733205
22.908117,120.27683,-12.866572
22.908136,120.27684,-12.999737
22.908154,120.27685,-13.13279
22.908173,120.27687,-13.265649
22.90819,120.27688,-13.398347
22.908209,120.27689,-13.530902
22.908226,120.27691,-13.663295
22.908243,120.276924,-13.795505
22.908262,120.27693,-13.927552
22.908281,120.27694,-14.059458
22.908298,120.27696,-14.191161
22.908316,120.27697,-14.322752
22.908333,120.276985,-14.45414
22.908352,120.27699,-14.585355
22.90837,120.27701,-14.716418
22.908388,120.27702,-14.847308
22.908403,120.27703,-14.978067
22.90842,120.277054,-15.108603
22.90844,120.27706,-15.239005
22.908457,120.27707,-15.3692255
22.908474,120.277084,-15.499284
22.908491,120.27709,-15.629159
22.908508,120.277115,-15.7588825
22.908525,120.27712,-15.888443
22.908543,120.27713,-16.01782
22.90856,120.277145,-16.147038
22.908575,120.27716,-16.27608
22.908592,120.277176,-16.40498
22.90861,120.27718,-16.533669
22.908628,120.27719,-16.662193
22.908646,120.27721,-16.790565
22.908659,120.27722,-16.918756
22.908676,120.27724,-17.046753
22.908693,120.277245,-17.17463
22.90871,120.27725,-17.302332
22.908728,120.27727,-17.429832
22.908743,120.27728,-17.55716
22.90876,120.2773,-17.684294
22.908777,120.277306,-17.811277
22.908792,120.27731,-17.938116
22.90881,120.27733,-18.064774
22.908825,120.277336,-18.191248
22.90884,120.27736,-18.31752
22.908857,120.27737,-18.44367
22.908875,120.277374,-18.569628
22.90889,120.27738,-18.695402
22.908907,120.2774,-18.820982
22.908922,120.277405,-18.946432
22.908937,120.27743,-19.071678
22.908955,120.277435,-19.196762
22.90897,120.27744,-19.321684
22.908985,120.27746,-19.446413
22.909,120.277466,-19.570969
22.909016,120.27747,-19.695343
22.909033,120.27749,-19.819544
22.909048,120.2775,-19.943602
22.909063,120.27752,-20.067457
22.909079,120.27753,-20.191141
22.909094,120.277534,-20.31463
22.90911,120.27755,-20.437948
22.909124,120.27756,-20.561113
22.909142,120.277565,-20.684107
22.909157,120.27758,-20.806887
22.90917,120.27759,-20.929523
22.909185,120.277596,-21.051968
22.9092,120.27761,-21.17422
22.909216,120.27762,-21.296328
22.909231,120.27764,-21.418224
22.909246,120.27765,-21.53999
22.90926,120.27766,-21.66153
22.909275,120.27767,-21.78294
22.90929,120.27768,-21.904135
22.909306,120.27769,-22.02517
22.90932,120.2777,-22.14604
22.909334,120.27771,-22.266678
22.90935,120.27772,-22.387205
22.909365,120.27773,-22.507486
22.909378,120.27774,-22.627668
22.909393,120.27775,-22.747635
22.909409,120.277756,-22.86741
22.909422,120.27777,-22.987001
22.909435,120.27778,-23.106453
22.90945,120.27779,-23.22571
22.909466,120.2778,-23.344774
22.90948,120.27781,-23.463665
22.909494,120.27782,-23.582394
22.909508,120.27783,-23.700941
22.909521,120.27784,-23.819305
22.909536,120.27785,-23.937466
22.90955,120.27786,-24.055494
22.909565,120.27787,-24.1733
22.909578,120.27788,-24.290943
22.909592,120.27789,-24.408403
22.909605,120.2779,-24.525711
22.90962,120.27791,-24.642807
22.909634,120.27792,-24.759739
22.909647,120.27793,-24.8765
22.909662,120.27794,-24.993086
22.909676,120.277954,-25.10947
22.909687,120.27796,-25.225653
22.909702,120.27797,-25.34168
22.909716,120.277985,-25.457558
22.909729,120.27799,-25.573221
22.909742,120.278,-25.688732
22.909758,120.278015,-25.80404
22.90977,120.27802,-25.919197
22.909782,120.27803,-26.03415
22.909796,120.278046,-26.14892
22.90981,120.27805,-26.263517
22.909822,120.27806,-26.377943
22.909836,120.278076,-26.492226
22.90985,120.27808,-26.606266
22.90986,120.27809,-26.720142
22.909874,120.27809,-26.833866
22.909887,120.27811,-26.9474
22.9099,120.278114,-27.060747
22.909914,120.27812,-27.173935
22.909927,120.27814,-27.286898
22.909939,120.278145,-27.399689
22.909952,120.27815,-27.512318
22.909966,120.27816,-27.624773
22.909979,120.278175,-27.737026
22.90999,120.27818,-27.849157
22.910004,120.27819,-27.961084
22.910017,120.27819,-28.07281
22.910028,120.278206,-28.184381
22.91004,120.27821,-28.295752
22.910053,120.27822,-28.40696
22.910067,120.27824,-28.517982
22.910078,120.278244,-28.628815
22.910091,120.27825,-28.739483
22.910105,120.27827,-28.84999
22.910114,120.27827,-28.960295
22.910128,120.278275,-29.070406
22.91014,120.27828,-29.180353
22.910152,120.2783,-29.29012
22.910164,120.278305,-29.399723
22.910177,120.27831,-29.509132
22.910189,120.27833,-29.618391
22.9102,120.27833,-29.727457
22.910212,120.278336,-29.836319
22.910225,120.27834,-29.945028
22.910236,120.27836,-30.053535
22.91025,120.278366,-30.1619
22.910261,120.27837,-30.270092
22.910273,120.27839,-30.37807
22.910284,120.27839,-30.485899
22.910295,120.2784,-30.593512
22.910307,120.278404,-30.700994
22.910318,120.27842,-30.808271
22.910332,120.27843,-30.915339
22.910343,120.27843,-31.0223
22.910355,120.278435,-31.129053
22.910364,120.27845,-31.23562
22.910378,120.27846,-31.342005
22.910389,120.278465,-31.448208
22.9104,120.278465,-31.554258
22.910412,120.27848,-31.660147
22.910423,120.27849,-31.765831
22.910435,120.278496,-31.871353
22.910446,120.27851,-31.976673
22.910456,120.27851,-32.08184
22.910467,120.27852,-32.186825
22.910479,120.27853,-32.291626
22.91049,120.278534,-32.396267
22.910501,120.27855,-32.5007
22.910513,120.27855,-32.604977
22.910524,120.27856,-32.7091
22.910534,120.278564,-32.813015
22.910545,120.27858,-32.916782
22.910557,120.27858,-33.020355
22.910568,120.27859,-33.123745
22.91058,120.278595,-33.226963
22.91059,120.27861,-33.33002
22.9106,120.27861,-33.432903
22.910612,120.27862,-33.535603
22.910622,120.278625,-33.638123
22.910631,120.27864,-33.740467
22.910643,120.27864,-33.84265
22.910654,120.27865,-33.94466
22.910666,120.278656,-34.04648
22.910675,120.27867,-34.148132
22.910686,120.27867,-34.249603
22.910698,120.27868,-34.350903
22.910706,120.27869,-34.45205
22.910717,120.2787,-34.553005
22.910727,120.2787,-34.653778
22.910738,120.27871,-34.754417
22.91075,120.27872,-34.854843
22.910759,120.27872,-34.955097
22.91077,120.27873,-35.0552
22.91078,120.27874,-35.155106
22.910791,120.27875,-35.254864
22.910799,120.27875,-35.354416
22.91081,120.27876,-35.45382
22.91082,120.27877,-35.553066
22.910831,120.27877,-35.652103
22.910841,120.27878,-35.750965
22.91085,120.27879,-35.84971
22.910862,120.27879,-35.948246
22.910872,120.2788,-36.046593
22.91088,120.27881,-36.144794
22.91089,120.27881,-36.242825
22.9109,120.278824,-36.340675
22.91091,120.27883,-36.43834
22.910921,120.27883,-36.535873
22.91093,120.27884,-36.6332
22.91094,120.278854,-36.73037
22.91095,120.278854,-36.82736
22.910961,120.27886,-36.92421
22.910969,120.27887,-37.02085
22.910978,120.27887,-37.11736
22.910988,120.278885,-37.213684
22.910997,120.27889,-37.309807
22.911007,120.27889,-37.405796
22.911018,120.2789,-37.501595
22.911028,120.27891,-37.59726
22.911037,120.27891,-37.692722
22.911047,120.27892,-37.788002
22.911055,120.27893,-37.88314
22.911064,120.27893,-37.978096
22.911074,120.27894,-38.0729
22.911083,120.27895,-38.16752
22.911093,120.27895,-38.261993
22.911102,120.27896,-38.35626
22.911112,120.27896,-38.45037
22.911121,120.27897,-38.544353
22.91113,120.278984,-38.63815
22.911139,120.278984,-38.731754
22.911148,120.27899,-38.8252
22.911158,120.279,-38.918476
22.911167,120.279,-39.011585
22.911175,120.279015,-39.10454
22.911184,120.279015,-39.197342
22.911194,120.27902,-39.289955
22.911203,120.27903,-39.38242
22.911213,120.27903,-39.474686
22.911219,120.279045,-39.5668
22.911228,120.279045,-39.658768
22.911238,120.27905,-39.75057
22.911247,120.27906,-39.842194
22.911255,120.27906,-39.933647
22.911264,120.279076,-40.024937
22.911274,120.279076,-40.116043
22.911283,120.27908,-40.207
22.911291,120.27908,-40.297813
22.9113,120.27909,-40.388424
22.911308,120.279106,-40.47892
22.911316,120.279106,-40.569195
22.911325,120.27911,-40.65934
22.911333,120.27911,-40.74932
22.911343,120.27912,-40.83913
22.911352,120.27912,-40.928776
22.91136,120.27914,-41.01828
22.91137,120.279144,-41.10763
22.911377,120.279144,-41.196777
22.911386,120.27915,-41.285732
22.911392,120.27915,-41.374588
22.911402,120.27917,-41.46326
22.91141,120.27917,-41.551777
22.911419,120.279175,-41.640144
22.911427,120.279175,-41.728317
22.911436,120.27918,-41.816353
22.911444,120.27918,-41.90421
22.911451,120.2792,-41.991875
22.91146,120.279205,-42.079453
22.911469,120.279205,-42.166832
22.911476,120.27921,-42.254063
22.911484,120.27921,-42.3411
22.911491,120.27923,-42.428024
22.9115,120.27923,-42.514736
22.911509,120.279236,-42.601322
22.911516,120.279236,-42.687748
22.911524,120.27924,-42.773994
22.911533,120.27924,-42.860077
22.911541,120.27926,-42.946056
22.911549,120.27926,-43.031815
22.911556,120.27927,-43.11743
22.911564,120.27927,-43.202927
22.911572,120.279274,-43.28824
22.91158,120.279274,-43.373356
22.911587,120.27928,-43.458374
22.911594,120.27928,-43.543186
22.911604,120.2793,-43.62785
22.911612,120.2793,-43.712357
22.91162,120.279305,-43.796722
22.911627,120.279305,-43.88091
22.911634,120.27931,-43.96497
22.911642,120.27931,-44.04887
22.911648,120.27933,-44.1326
22.911655,120.27933,-44.216175
22.911663,120.279335,-44.299576
22.91167,120.279335,-44.382828
22.911678,120.27934,-44.465946
22.911688,120.27934,-44.548912
22.911695,120.27936,-44.631706
22.911703,120.27936,-44.714348
22.91171,120.279366,-44.7968
22.911716,120.279366,-44.879124
22.911724,120.27937,-44.961308
22.911732,120.27937,-45.04333
22.911737,120.27937,-45.125202
22.911745,120.27939,-45.20688
22.911753,120.27939,-45.288464
22.91176,120.279396,-45.369846
22.911768,120.279396,-45.451088
22.911776,120.2794,-45.532227
22.911783,120.2794,-45.61314
22.911789,120.27942,-45.693924
22.911797,120.27942,-45.77456
22.911804,120.27943,-45.855045
22.911812,120.27943,-45.935383
22.911818,120.27943,-46.01555
22.911825,120.279434,-46.095592
22.91183,120.279434,-46.175472
22.911839,120.27945,-46.25517
22.911846,120.27945,-46.334743
22.911854,120.27946,-46.41419
22.91186,120.27946,-46.49344
22.911867,120.279465,-46.57256
22.911875,120.279465,-46.651527
22.91188,120.279465,-46.73033
22.911888,120.27948,-46.80899
22.911896,120.27948,-46.88753
22.911901,120.27949,-46.96589
22.911907,120.27949,-47.044094
22.911915,120.27949,-47.12217
22.91192,120.279495,-47.20008
22.911928,120.279495,-47.27784
22.911936,120.27951,-47.355446
22.911942,120.27951,-47.43293
22.91195,120.27952,-47.51023
22.911955,120.27952,-47.587402
22.911963,120.27952,-47.66444
22.911968,120.279526,-47.741306
22.911976,120.279526,-47.818027
22.911983,120.27954,-47.89461
22.91199,120.27954,-47.97105
22.911995,120.27954,-48.047314
22.912,120.27955,-48.12346
22.912008,120.27955,-48.199463
22.912014,120.27955,-48.27529
22.91202,120.27956,-48.35099
22.912027,120.27956,-48.426537
22.912033,120.27957,-48.50192
22.91204,120.27957,-48.5772
22.912046,120.27957,-48.652332
22.912054,120.27958,-48.72725
22.91206,120.27958,-48.802094
22.912066,120.27959,-48.876755
22.912073,120.27959,-48.951286
22.912077,120.27959,-49.025665
22.912083,120.2796,-49.09991
22.91209,120.2796,-49.174004
22.912096,120.2796,-49.247948
22.912102,120.27961,-49.32176
22.91211,120.27961,-49.395405
22.912115,120.27961,-49.468918
22.91212,120.27962,-49.5423
22.912128,120.27962,-49.615543
22.912134,120.27963,-49.688625
22.91214,120.27963,-49.76157
22.912146,120.27963,-49.834354
22.912153,120.27964,-49.90704
22.912159,120.27964,-49.979538
22.912163,120.27964,-50.051918
22.912169,120.27965,-50.12414
22.912176,120.27965,-50.196217
22.912182,120.27965,-50.26819
22.912188,120.279655,-50.33998
22.912193,120.279655,-50.41166
22.912199,120.279655,-50.483154
22.912205,120.27967,-50.554546
22.91221,120.27967,-50.62579
22.912218,120.27967,-50.69687
22.912224,120.27968,-50.767834
22.91223,120.27968,-50.838673
22.912235,120.27968,-50.909332
22.912241,120.279686,-50.979855
22.912247,120.279686,-51.050285
22.91225,120.279686,-51.12054
22.912256,120.2797,-51.190666
22.912262,120.2797,-51.26065
22.912268,120.2797,-51.33048
22.912273,120.27971,-51.400177
22.91228,120.27971,-51.469704
22.912285,120.27971,-51.539158
22.91229,120.27972,-51.60844
22.912296,120.27972,-51.677612
22.912302,120.27972,-51.74662
22.912308,120.27973,-51.815475
22.912313,120.27973,-51.884212
22.91232,120.27973,-51.952793
22.912325,120.27973,-52.021282
22.91233,120.27974,-52.089592
22.912334,120.27974,-52.15777
22.91234,120.27974,-52.225822
22.912346,120.27975,-52.293724
22.912352,120.27975,-52.361504
22.912357,120.27975,-52.429142
22.912363,120.27976,-52.49666
22.912367,120.27976,-52.56404
22.912373,120.27976,-52.631275
22.912378,120.27976,-52.698353
22.912384,120.27977,-52.7653
22.91239,120.27977,-52.832138
22.912395,120.27977,-52.89883
22.9124,120.27978,-52.965412
22.912405,120.27978,-53.031803
22.91241,120.27978,-53.0981
22.912416,120.27978,-53.164265
22.91242,120.27979,-53.23027
22.912424,120.27979,-53.29615
22.91243,120.27979,-53.36191
22.912436,120.2798,-53.42754
22.912441,120.2798,-53.493004
22.912445,120.2798,-53.55838
22.91245,120.2798,-53.623592
22.912457,120.27981,-53.68866
22.91246,120.27981,-53.75362
22.912466,120.27981,-53.818436
22.912472,120.27981,-53.88311
22.912476,120.27982,-53.94768
22.912481,120.27982,-54.01211
22.912487,120.27982,-54.076397
22.91249,120.27982,-54.140556
22.912497,120.27983,-54.20459
22.912502,120.27983,-54.26849
22.912504,120.27983,-54.33227
22.91251,120.27983,-54.395878
22.912516,120.27984,-54.459408
22.91252,120.27984,-54.52276
22.912525,120.27984,-54.586002
22.912529,120.27984,-54.64913
22.912535,120.279854,-54.712112
22.912539,120.279854,-54.77495
22.912544,120.279854,-54.837685
22.91255,120.279854,-54.900276
22.912554,120.27986,-54.962776
22.91256,120.27986,-55.025074
22.912563,120.27986,-55.087284
22.912569,120.27986,-55.149338
22.912573,120.27987,-55.2113
22.912579,120.27987,-55.273144
22.912582,120.27987,-55.334812
22.912588,120.27987,-55.39639
22.91259,120.279884,-55.457825
22.912596,120.279884,-55.519127
22.9126,120.279884,-55.580288
22.912603,120.279884,-55.64135
22.91261,120.279884,-55.70228
22.912613,120.27989,-55.76306
22.912619,120.27989,-55.82374
22.912622,120.27989,-55.884277
22.912628,120.27989,-55.9447
22.912632,120.2799,-56.00499
22.912636,120.2799,-56.065136
22.912642,120.2799,-56.12518
22.912645,120.2799,-56.18507
22.91265,120.2799,-56.244873
22.912655,120.279915,-56.30452
22.912659,120.279915,-56.364037
22.912663,120.279915,-56.423462
22.912668,120.279915,-56.482746
22.912672,120.279915,-56.54191
22.912674,120.27992,-56.60093
22.91268,120.27992,-56.659855
22.912683,120.27992,-56.7186
22.912687,120.27992,-56.777256
22.912693,120.27993,-56.83579
22.912697,120.27993,-56.894207
22.9127,120.27993,-56.952488
