Latitude,Longitude,Altitude (m)
-11.09203544563978,16.11228003355837,11599.844349460604
-11.081045231559152,16.111498318633565,11599.999550743105
-11.070044598238779,16.110727352009075,11600.156125488282
-11.059037713374561,16.109964894455665,11600.315447158815
-11.048022493118548,16.10920848282118,11600.476142292024
-11.03700102131869,16.10845431041593,11600.640957813264
-11.025973297974987,16.107700138010678,11600.807146797182
-11.014939323087438,16.10694327853035,11600.976082706453
-11.003900138580017,16.10618104489986,11601.147765541078
-10.9928567863767,16.105409406506602,11601.322195301058
-10.981808224553511,16.104627467658876,11601.497998523713
-10.970757578882374,16.10383074989822,11601.6779221344
-10.95970589128726,16.1030170139954,11601.86196613312
-10.948654203692149,16.102183572875347,11602.047383594514
-10.937601474173064,16.10132818730882,11602.23692144394
-10.926542493110132,16.10044525922274,11602.430579681397
-10.915489763591046,16.09953590823173,11602.624237918855
-10.904434950224012,16.098595208031472,11602.82339000702
-10.893384304552873,16.097620023701047,11603.02528902054
-10.882333658881736,16.096607668165376,11603.23130842209
-10.871286138982521,16.09555702180984,11603.441448211672
-10.860244870627152,16.094462934407208,11603.65296146393
-10.849205686119731,16.093324510265788,11603.868595104219
-10.838173795080131,16.09213771877296,11604.088349132538
-10.827143987888478,16.090899201084884,11604.313597011567
-10.816125641860543,16.08960761366401,11604.541591815949
-10.805108337756582,16.088259821589425,11604.772333545687
-10.79410249481634,16.086851570325578,11605.00856912613
-10.783102903419941,16.0853830837954,11605.248925094606
-10.77211477318726,16.083848092157037,11605.492027988435
-10.76113914604227,16.082244804027106,11605.740624732973
-10.750167686593176,16.080572547636837,11605.99334186554
-10.739210814079724,16.07882505314438,11606.25017938614
-10.728263318882039,16.077001872703896,11606.51113729477
-10.717330410619995,16.075100991009066,11606.776215591432
-10.706408963521667,16.07311636214097,11607.046787738802
-10.69550001951103,16.071047986099604,11607.320106811525
-10.684607746283982,16.068891384426507,11607.600293197633
-10.673732143840523,16.06664431789245,11607.883226509095
-10.662865918712832,16.06430477119112,11608.171653671267
-10.652022615912575,16.061868937632827,11608.465574684144
-10.64119494197193,16.05933345837372,11608.763616085054
-10.63037977111898,16.05670191618057,11609.428372020722
-10.619591690289358,16.053967593365687,11610.262063865663
-10.608832783331017,16.05113026600614,11611.149320755007
-10.598103050243957,16.04819172548532,11612.048938808442
-10.587396239484328,16.045153091417838,11612.944436473848
-10.576722770291877,16.042017722647547,11613.830319900513
-10.566084726514552,16.038785619174444,11614.699721775056
-10.555490443544146,16.035454765692222,11615.554015560152
-10.544949298696428,16.032026057892573,11616.389080867768
-10.534472753135114,16.028495465162877,11617.204917697907
-10.524175418497377,16.0247389342037,11606.450704936982
-10.51364677673735,16.020915002444646,11590.475960540773
-10.502873282843368,16.017137870576533,11572.735629873278
-10.492009141563626,16.013425900279067,11554.479563970566
-10.48119813840657,16.009734306967612,11536.114307785036
-10.470522585366172,16.006006885988445,11517.764159688952
-10.460013740161656,16.002196389604784,11499.4716970253
-10.449664309325204,15.998274379605379,11481.253401346208
-10.43946804131297,15.994228316306536,11463.11613996506
-10.42941139111329,15.990051929866405,11445.062659807207
-10.419484981410392,15.985748355205912,11427.097767992022
-10.40967943488851,15.981318040170901,11409.220777788163
-10.399983290383927,15.976762328298912,11391.431689195633
-10.390405925212411,15.972085474125487,11373.734622602464
-10.380928584742426,15.967288373342315,11356.132324934008
-10.371562730137688,15.9623710259494,11338.622049264908
-10.36229690023448,15.957337238636434,11321.207915983201
-10.35313317888075,15.95218723532634,11303.89129855156
-10.344071566076499,15.94692258347958,11286.671510238648
-10.33510789412583,15.941544178787849,11269.552671432497
-10.326242163028743,15.936054260480375,11252.534782133103
-10.317474372785236,15.930453948171778,11235.61784234047
-10.308805565319286,15.92474301793913,11218.806659173966
-10.300226363315124,15.918924156857514,11202.100545902253
-10.291746144088519,15.912999828079082,11185.498815793992
-10.283352404551776,15.906968464143374,11169.006962699892
-10.275056605868615,15.900832304279618,11152.621552963257
-10.266850412647242,15.894594259485817,11136.345333509445
-10.258727573343812,15.888254329761974,11120.181051263811
-10.25069954912204,15.881813858645625,11104.126646032335
-10.242754878818209,15.875273517905539,11088.183491277696
-10.234896688204245,15.868636442462643,11072.35364719391
-10.227126019204118,15.861903080162781,11056.6357403183
-10.219440787969882,15.855074102774722,11041.031144113542
-10.21183474295769,15.848152645219393,11025.539858579637
-10.20431205186344,15.841137140036333,11010.162570447923
-10.196870630839184,15.834032513529847,10994.898592987061
-10.189506312189023,15.826836974316553,10979.749986391069
-10.182223263608856,15.819551642011065,10964.712630271913
-10.175015233554836,15.812181218994771,10949.785837898255
-10.167884305874914,15.804725705267671,10934.975103120805
-10.160830480569086,15.797185100829765,10920.279739208223
-10.15384750609351,15.789561197064437,10905.69905942917
-10.146937466296132,15.78185690496969,10891.232377052309
-10.140100361176954,15.774071776699676,10876.877631883623
-10.133332023040078,15.766207603637781,10862.63619738579
-10.126637661505375,15.758266848936161,10848.504639902116
-10.120007899257077,15.750249288671894,10834.485019626618
-10.113447945915055,15.742157162074207,10820.591757917406
-10.106948424163543,15.733991812680644,10806.920310430527
-10.10051766939433,15.725755031874588,10793.28594643593
-10.09415359775947,15.71744704357896,10779.687979202272
-10.087845790019223,15.709070534868843,10766.122975072862
-10.081602581565381,15.70062595359008,10752.590247316362
-10.075416678930123,15.692114867203136,10739.089109201432
-10.069295375581271,15.683539962783085,10725.618873996737
-10.06322616843113,15.67490124032993,10712.178854970933
-10.057219476719448,15.66619869984367,10698.764245004655
-10.051263839282505,15.657437491551539,10685.377104291916
-10.045364465740173,15.64861582407015,10672.016059370042
-10.039518230320528,15.639736832320429,10658.678363313677
-10.033724091099597,15.63080163591699,10645.362642660142
-10.027978922305456,15.621810234859835,10632.068897409441
-10.022285849710029,15.61276531622404,10618.795754098894
-10.01664070561742,15.603670462776378,10605.539779071809
-10.011042448103652,15.594522763518848,10592.300972328187
-10.005493161016675,15.585325129449448,10579.077273674013
-9.999984508964694,15.576081143334951,10565.868683109284
-9.994524827339504,15.566789909483665,10552.67245370865
-9.989103696901363,15.557454338893592,10539.486525278093
-9.983724243422191,15.548074207641806,10526.310897817613
-9.978383341130069,15.538651754957538,10513.143511133196
-9.973084115796919,15.529188548301255,10499.982305030824
-9.967823441650815,15.519687498670955,10486.82659277916
-9.962598192919836,15.51014748645202,10473.672940721513
-9.957411495375906,15.50057097479661,10460.521348857881
-9.952256055551205,15.49095930724226,10447.370443725587
-9.94713395729368,15.48131584263282,10434.217478399278
-9.942042074831408,15.471638341739059,10421.062452878954
-9.936981450088364,15.461931059096514,10407.901246776582
-9.931953124988524,15.452193770782264,10394.733860092165
-9.926953973759963,15.44243005956308,10381.558919363022
-9.921975661010888,15.432640821130652,10368.37161746979
-9.91702860598104,15.422825159793293,10355.174701337815
-9.912103431354653,15.412987330086537,10341.961990385056
-9.907203262903648,15.403126660241618,10328.736918268205
-9.902326016780076,15.393246061256535,10315.492617673875
-9.897468567212016,15.38334687666883,10302.229775333406
-9.892630914199469,15.37343179355358,10288.945644321442
-9.887810973894481,15.363499468373245,10275.638851175308
-9.883007704373084,15.353552588202904,10262.308022432328
-9.878223189483224,15.343594511886403,10248.949724435808
-9.873449093833106,15.333623895886205,10235.563270454408
-9.868690627042602,15.32364365120031,10222.146600294114
-9.863946747187738,15.313654673520412,10208.697653760912
-9.859212244648642,15.303659425998665,10195.214370660782
-9.854485035577365,15.293659028249685,10181.694004068375
-9.849770329593781,15.283655943425627,10168.135180521012
-9.845061875154043,15.273649275834797,10154.536526556016
-9.840355504562252,15.263641712552275,10140.895295248032
-9.83565851128623,15.253636836344832,10127.209426403047
-9.830965685706106,15.24363285582908,10113.476859827042
-9.82627286012598,15.233633353771793,10099.696908788683
-9.82158107646983,15.223639673710508,10085.864766168595
-9.816891376661628,15.213652263491072,10071.980431966782
-9.81219542530958,15.203674034111486,10058.04115925789
-9.807501557805482,15.193705433417596,10044.042827653886
-9.802800396833563,15.18374982025325,10029.986810617447
-9.798097152013694,15.173806746772604,10015.868987760545
-9.793385571802034,15.16387867612781,10001.6879856205
-9.788665656198578,15.153967847548099,9987.439683809282
-9.783937405203327,15.14407470887932,9973.12408232689
-9.779198734968334,15.13420127542778,9958.737060785295
-9.774445477797702,15.124349562499788,9944.278619184495
-9.769681801387327,15.114520913632882,9929.74463713646
-9.764901454193362,15.104716336480218,9915.131680984498
-9.760108603911707,15.094937958309565,9900.441124191286
-9.75529595707454,15.085187346581387,9885.667472906114
-9.750466639453787,15.07546662856345,9870.810040397646
-9.74561960912547,15.065777035831838,9855.86470627785
-9.740748614545744,15.056119911924084,9840.831470546724
-9.735854697638585,15.046497048223577,9825.70621281624
-9.730943068023864,15.036912251420008,9810.488246355058
-9.725999138765939,15.027363170322687,9795.17276404381
-9.721033329104554,15.017854395351534,9779.757705688478
-9.716036261723941,15.008386598275326,9764.243071289064
-9.711018355863844,14.998960898708672,9748.624053726197
-9.705961898816698,14.989581999032964,9732.899279537201
-9.700875225974297,14.98024855571066,9717.066001796724
-9.695757295412669,14.970962472086606,9701.120786848069
-9.69060498135989,14.961726323274421,9685.062947959901
-9.685419325739934,14.952542908310644,9668.888364744187
-9.680193035084983,14.94341189131089,9652.594290275574
-9.674928193242982,14.934335399542928,9636.180724554062
-9.669625842137908,14.925317127734992,9619.642173728944
-9.66427868830194,14.916356740002696,9602.97726433754
-9.658894025202898,14.907455691845042,9586.1832494545
-9.653463517448987,14.898617901913184,9569.258755617142
-9.64798716504021,14.889844601783201,9552.198975706102
-9.642462884128616,14.881137134992631,9535.00184952736
-9.636892758562153,14.872496173310244,9517.66737708092
-9.631276788340822,14.86392597127158,9500.18937778473
-9.625602470376933,14.855426081030794,9482.567164907456
-9.619878140062276,14.84700120496927,9464.797991523743
-9.614105881244805,14.83864988758801,9446.87773724556
-9.608270065064904,14.830376047538168,9428.805715341568
-9.60238006883834,14.822181812087516,9410.5771186924
-9.596434850641138,14.814067741043358,9392.191260566713
-9.590428158929456,14.806036969326623,9373.644020576477
-9.584363119475213,14.798090168706077,9354.932651796342
-9.57823452265854,14.790231033909954,9336.055780763627
-9.572041326555464,14.782460124745562,9317.009973821641
-9.565780405394058,14.774779904365056,9297.79248404503
-9.55945801071817,14.767192947882053,9278.399191045763
-9.553065807136006,14.759700262949705,9258.830094823837
-9.546603794647567,14.752302633298246,9239.080388259888
-9.540425185480128,14.744749153292258,9202.102652606965
-9.533765207436577,14.7373911579982,9155.751720914841
-9.526488410400257,14.730489629583033,9105.399205713273
-9.518769837598843,14.724103571737015,9053.377933359146
-9.51082204152309,14.718161105201807,9000.56898015976
-9.502773178821831,14.712558553663976,8947.293049650194
-9.494678471465706,14.7071995183051,8893.66757288933
-9.486555632162275,14.702022532282761,8839.734440488817
-9.478386948203976,14.696990536353182,8785.511507463456
-9.470171377666835,14.692080242532345,8731.004954395295
-9.461912046322775,14.687280790558482,8676.219588403703
-9.453591241464231,14.682584902936586,8621.162963533403
-9.445207921167233,14.677983958634115,8565.83713997841
-9.43677458851947,14.67347079211753,8510.251045246125
-9.428293327368888,14.669037342161596,8454.410859918595
-9.419769347335363,14.664676331271307,8398.328258428575
-9.41120994188671,14.660378578606817,8342.01354174614
-9.402624488338702,14.656134455482427,8285.47701084137
-9.39401611246326,14.651934781058285,8228.73446053505
-9.385397317348076,14.647769142918467,8171.800312185288
-9.376776438384942,14.643628360223122,8114.687613687516
-9.368156601345783,14.639503699978244,8057.414906787873
-9.359553435090213,14.635382958384522,7999.997986307145
-9.350970065390154,14.63125863402403,7942.45608072281
-9.34242003725727,14.62711829917453,7884.808418512345
-9.334290946409993,14.622715526659071,7814.904662103654
-9.325983686563116,14.618322830675153,7737.805334730149
-9.317389897623315,14.614123716058321,7657.445406961442
-9.308658574718908,14.610142926291584,7575.718883829118
-9.299976222241293,14.606308134270755,7493.432674655915
-9.291451200283792,14.602526635905644,7410.9232777977
-9.283149150056786,14.598729350974448,7328.339027223588
-9.275067987712326,14.594876309235381,7245.747909336091
-9.267205629402463,14.590956986311054,7163.184260702134
-9.259534985103867,14.586976532428702,7080.662502679826
-9.252042509804872,14.58295375711387,6998.187442388536
-9.24470007155817,14.578909933044258,6915.752212514878
-9.23749204150415,14.574870923317496,6833.3451386260995
-9.230398623087302,14.570862591031208,6750.9490524387365
-9.22340210360006,14.566910015552791,6668.539918355943
-9.216484770334864,14.56304118724764,6586.0882069301615
-9.209630994432096,14.559280065868537,6503.558208131791
-9.202820979336249,14.555655425511109,6420.9114650058755
-9.196040138111682,14.552192009658366,6338.105400209428
-9.189267632278908,14.548919040251784,6255.091255817414
-9.182493042598187,14.545861820581681,6171.817526979447
-9.17569553059003,14.543048005129068,6088.22790172577
-9.168856341622904,14.540505920143728,6004.268128280641
-9.161962972609114,14.538262548337903,5919.879834480286
-9.15499250122123,14.53634599203845,5835.021129713059
-9.147930340523608,14.534785025341,5749.572522726059
-9.14076190358061,14.533608310379718,5663.47323779583
-9.133468435760701,14.532844957134614,5576.660095639229
-9.126024930888496,14.532523515778397,5489.068543510437
-9.118429305116047,14.532672984329617,5400.635058760643
-9.110655510343998,14.533324600036055,5311.293028450013
-9.102614983034535,14.534504673841186,5225.573505949974
-9.095452797635383,14.535408426759117,5142.1390819787985
-9.089767018507777,14.535501242810774,5066.380940909386
-9.085255487699175,14.535281014615832,4994.918304362297
-9.080261546090485,14.536154090093289,4929.948025889397
-9.074737265178891,14.53821238960311,4868.118169827461
-9.068559697935427,14.541223257228117,4813.641489572526
-9.060819244730554,14.545884548758382,4762.877278933525
-9.050202039432715,14.55334980313264,4703.572534003258
-9.035469234436498,14.564327848364202,4637.004231705666
-9.017014677004177,14.578422228917583,4565.903502573967
-8.996020950846553,14.59464634039328,4492.399213757515
-8.973735238960833,14.61190609538866,4417.96646417141
-8.951160914134238,14.629265720007776,4343.6271100473405
-8.92900752659325,14.646031612996094,4270.096725440026
-8.907736648658469,14.661747531397644,4197.882461442948
-8.887620222487184,14.676142192591005,4127.332490844727
-8.868790572424125,14.689077995939881,4058.6782421064377
-8.851309171983775,14.70050455878656,3992.055688033104
-8.835185398481904,14.7104301662792,3927.5180503034594
-8.820376533035564,14.718898147503435,3865.0581182384494
-8.806837772913862,14.72596884968706,3804.619923233986
-8.794498267286551,14.73171807073957,3746.1001122236253
-8.783590365199888,14.736077626130857,3685.163006901741
-8.77376398019852,14.739278940202023,3622.748055739403
-8.764899291025408,14.741523431622465,3559.9804680347443
-8.757031723095674,14.742926756582,3497.451519470215
-8.750246714175208,14.743568295756896,3435.326368932724
-8.743488795278076,14.744095970125356,3388.331626610756
-8.737747794179832,14.744158220697999,3352.4972986364364
-8.73317999947662,14.743611065035221,3322.906731991768
-8.729374893122577,14.742630730477563,3296.355981616974
-8.725834435457998,14.741542912916781,3271.041691017151
-8.722165821144582,14.740673084321708,3245.9876715946198
-8.718124198048379,14.74027181444338,3220.6723508977893
-8.713573074128755,14.740490699100784,3194.8258435106277
-8.70844889202328,14.741406655818029,3168.31801384449
-8.702736022872342,14.743036926660203,3141.1069712877274
-8.696435508599915,14.745365725061218,3113.20645046711
-8.689562978065611,14.748352856856368,3084.6686429643632
-8.682136143976996,14.751951298231784,3055.5718361520767
-8.674184180205344,14.75610327707329,3026.0138892459872
-8.66572375753425,14.760749901652087,2996.107426185608
-8.656790301378834,14.765832168277921,2965.97605861187
-8.64740360829461,14.771287602455224,2935.751295576096
-8.63759597792478,14.777055297148896,2905.571685125828
-8.62738824874883,14.783072106094599,2875.5800673794747
-8.616808552714064,14.789276002642614,2845.9232311606406
-8.605887105615736,14.795604176412992,2816.7512272667886
-8.594136287033887,14.802240020279811,2794.7377108454707
-8.582304198382044,14.808735352512338,2778.5638143610954
-8.570870124688375,14.814660017175155,2766.329008834362
-8.560042450747732,14.819758742135843,2756.7679917740825
-8.549889943542418,14.82392997834874,2749.1552315211297
-8.540435525399866,14.827165664588614,2743.0773158097268
-8.53170420249546,14.82950006106271,2738.27466019392
-8.523685555589456,14.830987133195512,2734.557555141449
-8.516381668529803,14.831690027251357,2731.767194030285
-8.509786289772656,14.831671105764348,2729.4882760834694
-8.503759801505462,14.831069760754163,2727.6320412755013
-8.49814591513208,14.830054494220489,2726.14612634182
-8.492813348231753,14.828777237866701,2724.967867047787
-8.487647489167307,14.827355999073312,2724.0370027184485
-8.48258582250029,14.82586825517174,2723.11575262785
-8.477561665096346,14.824367187856238,2722.2044601416587
-8.472560430019836,14.822881347299512,2721.328190953732
-8.467565446487173,14.82141689138195,2720.5013664221765
-8.462578798346303,14.819972252643089,2719.7281069350242
-8.45759631790133,14.818539929665002,2719.0056655669214
-8.452632592087895,14.817113092798534,2718.329063515663
-8.447670950122408,14.815687151623758,2717.6940087103844
-8.442728062788458,14.814254716684209,2717.0948356175422
-8.437781007758609,14.812811981290194,2716.5279388976096
-8.432844371968505,14.811355026790558,2715.988168065548
-8.427913987722246,14.809880382379992,2715.4729478788377
-8.422979435780091,14.808384801176109,2714.9802181434634
-8.41813657314767,14.80682528997766,2713.5022006201743
-8.413287458971405,14.805242938641046,2711.262082993984
-8.408417506315653,14.803679060945592,2708.568379318714
-8.403526715180417,14.8021616472567,2705.6219585108756
-8.399119376769242,14.80047651529835,2696.596420211792
-8.394597426720898,14.798957646110455,2682.873639557362
-8.389646203995154,14.797910134675844,2666.3287364673615
-8.384186522369964,14.797490950963661,2648.2220346307754
-8.378368418897626,14.797667402227123,2627.9768514060975
-8.372252325168644,14.79836257094212,2606.3140830159186
-8.366002865170955,14.799411985721576,2583.8871543288233
-8.359826339851466,14.800628335040262,2561.099348323345
-8.353893624741957,14.801846699665255,2538.1530790615084
-8.348321415327545,14.802949743984813,2515.118908188343
