Latitude,Longitude,Altitude (m)
22.90371029444801,120.27312133015387,10.56288901489973
22.903715141400014,120.27312173745806,10.48460980939865
22.903719905512766,120.27312213629577,10.405898243904113
22.90372458815551,120.27312252496154,10.326742070257662
22.903729187787846,120.27312290327264,10.247139451235531
22.90373370526555,120.27312327086359,10.16707691386342
22.90373814024632,120.2731236262726,10.086552620917558
22.903742492216676,120.27312396864687,10.005554936647414
22.903746762032405,120.27312429816918,9.924077736973762
22.90375094798195,120.27312461374312,9.842106936514377
22.903755051776866,120.27312491482053,9.759641310453414
22.90375907256137,120.27312520091411,9.676662486553191
22.903763011704715,120.27312547178022,9.59316434073448
22.903766867495342,120.2731257269925,9.50913952410221
22.903770641302494,120.27312596539367,9.424574563682079
22.903774332099236,120.27312618741009,9.339460885763168
22.90377794074135,120.27312639304175,9.253782567739487
22.90378146739999,120.27312658180138,9.167533485531806
22.903784911732846,120.27312675332352,9.080701390981673
22.903788274938,120.27312690657271,8.993274035930632
22.90379155564622,120.27312704331534,8.905239172220229
22.90379475488443,120.27312716245501,8.816587001323699
22.90379787231032,120.27312726417446,8.727304050266742
22.903800908950824,120.27312734804732,8.63738419497013
22.90380386309439,120.27312741419543,8.546810288012027
22.903806736452566,120.27312746328877,8.45557498049736
22.903809528683045,120.27312749508371,8.36366969871521
22.90381223893005,120.27312750994572,8.271080969691276
22.903814867535896,120.27312750775296,8.177801444530486
22.903817416212128,120.27312748923637,8.083821324706078
22.903819882391424,120.2731274535432,7.989137548178434
22.903822267100708,120.27312740231801,7.8937409288287155
22.903824570682296,120.27312733525626,7.797621668130159
22.903826792622723,120.27312725254068,7.7007834405303
22.90382893240852,120.27312715441491,7.603219509541987
22.90383099055315,120.2731270418535,7.504928037941456
22.903832966885464,120.273126914491,7.4059084133207795
22.903834860720835,120.27312677330195,7.306166147351265
22.903836672230423,120.27312661865184,7.205703689664602
22.903838401071916,120.27312645054064,7.104528389155864
22.903840046731844,120.27312626994294,7.002645145088434
22.903841608867896,120.27312607691961,6.900066205620766
22.90384308748008,120.27312587244523,6.796805043727159
22.903844482226074,120.27312565670253,6.6928788068294525
22.903845792078954,120.27312542987424,6.5883040299415585
22.90384701755218,120.27312519275219,6.483102147340774
22.903848157618825,120.27312494594547,6.3772994925677775
22.903849212278885,120.27312469012408,6.2709211743474
22.90385018084774,120.27312442547077,6.16399781307578
22.903851062811924,120.27312415210734,6.056566153228283
22.903851857315654,120.27312387137384,5.948659877240657
22.90385256316085,120.27312358345296,5.840320016443729
22.90385318171675,120.2731232882229,5.731593113839626
22.903853710416023,120.27312298751096,5.622520813167095
22.903854150627915,120.27312268082986,5.513159455955028
22.903854500298557,120.27312236878868,5.403558034837245
22.90385475994142,120.27312205224017,5.293775953382253
22.903854927331476,120.27312173136707,5.183872615158558
22.903855002811046,120.27312140683937,5.07391079197824
22.903854985010874,120.2731210787789,4.96395754250884
22.903854873759812,120.2731207480993,4.854080537825823
22.903854668544394,120.27312041528788,4.744352042064071
22.903854368337683,120.2731200803446,4.634842788338661
22.903853973310838,120.27311974393947,4.525634226903319
22.903853481409993,120.27311940662071,4.416799234300852
22.903852892292836,120.2731190690583,4.308417729765177
22.90385220510359,120.27311873082589,4.200573919385671
22.90385141915763,120.27311839326349,4.093345578968525
22.903850534626116,120.27311805606654,3.986817833214998
22.903849549284025,120.27311771996597,3.8810721323788164
22.903848463131357,120.27311738550996,3.77619115152955
22.903847275654645,120.27311705263762,3.6722624650001525
22.9038459856558,120.27311672183622,3.569366298228502
22.90384459210789,120.27311639383666,3.467583795264363
22.903843095182076,120.27311606821257,3.36699854978919
22.90384149368026,120.27311574593855,3.2676917058527466
22.903839786575514,120.27311542671,3.1697407330572602
22.903837973354374,120.27311511150153,3.073224019616842
22.903836054016836,120.2731148004958,2.978219647541642
22.903834026851342,120.27311449338833,2.8848014119863508
22.903831891344435,120.27311419072727,2.7930428019016977
22.90382964783842,120.27311389306082,2.7030182248502967
22.90382729427943,120.2731136005108,2.6147950457036493
22.903824830496315,120.2731133124681,2.528445375494659
22.903822256146757,120.27311303045549,2.4440358135849234
22.90381957088845,120.27311275368112,2.3616363275796175
22.903816773694462,120.27311248293681,2.2813107610046863
22.903813864051322,120.27311221840533,2.2031283159554005
22.903810842301347,120.27311195941662,2.1271551324874163
22.90380770604835,120.27311170670166,2.053460412696004
22.903804455805812,120.2731114609304,1.9821124400645493
22.903801091402563,120.27311122143286,1.913181335300207
22.903797612838613,120.27311098833084,1.84674364939332
22.90379401891587,120.2731107618071,1.782872718192637
22.903790309292024,120.27311054216618,1.7216502981558441
22.903786483967075,120.27311033019988,1.6631595236584542
22.90378254259871,120.27311012462913,1.6074911841750144
22.903778484331152,120.27310992591073,1.5547432649731634
22.903774309335557,120.27310973444061,1.5050154354423284
22.90377001863886,120.27310955015786,1.45841946002841
22.903765609844882,120.27310937327564,1.4150739927664397
22.90376108466518,120.27310920339806,1.3751093234419822
22.903756441901663,120.2731090404033,1.3386637031435966
22.903751681040866,120.27310888459589,1.3058903869539498
22.903746803623186,120.27310873597585,1.2769528877884149
22.90374180845054,120.27310859481726,1.2520318659842014
22.903736696207545,120.27310846066331,1.2313200769349932
22.9037314668942,120.27310833327036,1.2150315572097896
22.903726120681664,120.2731082133084,1.2033981032073497
22.903720657227627,120.27310809983335,1.196668199442327
22.90371507721671,120.27310799330202,1.1951181184388697
22.903709380135442,120.27310789377532,1.199042198754847
22.903703566839607,120.27310780070506,1.2087674662210046
22.90369763784267,120.27310771427398,1.2246434526592491
22.903691593486933,120.27310763454298,1.247052683368325
22.9036854334301,120.2731075613598,1.276408533696085
22.90367915869909,120.27310749399349,1.3131590565890072
22.903672769293912,120.27310743305318,1.3577888963669538
22.90366626572803,120.2731073781734,1.4108163797855375
22.903659648343755,120.2731073292628,1.4728027787059546
22.903652918339173,120.27310728571226,1.5443436598330735
22.90364607571429,120.27310724782632,1.6260733246728776
22.903639119442165,120.27310721566592,1.7186603695750235
22.903632053117068,120.27310718850012,1.822804011285305
22.90362487451398,120.2731071666335,1.939226278744638
22.903617585857916,120.27310714942645,2.068664051786065
22.903610186806567,120.27310713700085,2.2118525261208415
22.90360267770225,120.27310712923484,2.3695137306898832
22.903595059743044,120.27310712570207,2.542322998329997
22.903587332757798,120.27310712673753,2.730895033493638
22.90357949691767,120.27310713154941,2.935734766513109
22.903571553763054,120.27310713995497,3.157218215852976
22.903563502267023,120.27310715219785,3.395536146581173
22.903555342771885,120.2731071679735,3.6506508956104513
22.903547076475725,120.27310718697738,3.922262689262628
22.90353870337855,120.27310720893539,4.2097741236090656
22.90353022211111,120.2731072337257,4.512241784244775
22.903521633871495,120.27310726140922,4.82839002546668
22.903512938317398,120.27310729180324,5.156591067016125
22.903504134593035,120.27310732426818,5.494901126146316
22.90349522252726,120.2731073589868,5.841101448953151
22.903486201606594,120.27310739632455,6.192777310997247
22.903477070632956,120.27310743524595,6.547375583648681
22.90346782943519,120.273107476421,6.902317417144775
22.903458476130588,120.27310751924063,7.25508642733097
22.903449009521058,120.27310756397891,7.6033162699937815
22.90343942840851,120.27310761072722,7.944863517403602
22.90342973056793,120.27310765902874,8.277878697633742
22.903419914801223,120.27310770897482,8.600820992350577
22.903409977342967,120.27310776090047,8.912493756473063
22.90339991665277,120.27310781498842,9.212029207974672
22.90338972930752,120.27310787093411,9.498886590659618
22.903379412911036,120.27310792916394,9.772801956713199
22.90336896267097,120.27310799025652,10.03375203463435
22.903358375677673,120.27310805433369,10.281927283287049
22.90334764816573,120.27310812124315,10.517682286858557
22.90333677482932,120.27310819192904,10.741476963698863
22.9033257512184,120.27310826678725,10.953875953912734
22.90331457202715,120.27310834654871,11.15547696763277
22.903303231778594,120.27310843154841,11.346916909098624
22.903291724653442,120.273108523035,11.528835132181644
22.903280044147795,120.27310862155669,11.701853843331337
22.903268184271205,120.27310872833166,11.866571977496147
22.903256137663988,120.27310884433447,12.02355539959669
22.90324389730877,120.27310897078333,12.173329555630684
22.90323145558913,120.27310910910961,12.316375798225401
22.903218805059804,120.27310926095787,12.45313873553276
22.903205936820708,120.27310942821633,12.584011533439158
22.903192843426584,120.27310961228591,12.709344489276408
22.90317951606292,120.27310981590755,12.829453605532645
22.903165945572894,120.27311004069536,12.944610791325568
22.903152124083363,120.27311028975575,13.055047536849974
22.90313804183846,120.27311056549465,13.16096593672037
22.903123689766943,120.27311087114029,13.262538689970969
22.903109058284105,120.27311120973816,13.359906650424003
22.9030941387466,120.27311158451649,13.453173927426338
22.903078921655293,120.27311199961713,13.542423808455466
22.903063397339903,120.27311245887742,13.627710185408592
22.903047556729188,120.27311296650014,13.709067353129386
22.903031390409595,120.27311352729716,13.786500210881233
22.903014889652198,120.27311414583671,13.85998671197891
22.90299804410209,120.27311482717433,13.929485212683677
22.90298084537265,120.27311557703553,13.99492712330818
22.902963284221485,120.27311640047583,14.056223032295703
22.90294535157735,120.2731173034644,14.11325413250923
22.90292703854017,120.27311829166585,14.16587467086315
22.902908335953114,120.27311937129299,14.213922971665859
22.90288923508726,120.27312054801044,14.257209188461303
22.902869726700214,120.27312182815282,14.295521428108215
22.902849803089975,120.2731232171411,14.328625750780105
22.902829455099727,120.27312472082265,14.356274743676185
22.902808674856317,120.27312634437477,14.378201396942139
22.90278745491448,120.2731280927312,14.394131351828575
22.90276578740107,120.27312996997286,14.403787799954413
22.902743666753526,120.27313197908435,14.406898832201957
22.902721087238145,120.27313412274572,14.403197438716887
22.902698045517393,120.27313640235788,14.392453354120253
22.902674539451827,120.27313881792082,14.374468158245087
22.90265056929818,120.27314136760727,14.349075276136398
22.902627656543086,120.2731093489117,19.431306548357007
22.902586917431407,120.2730911580623,23.70453470647335
22.902533820723004,120.27310891876631,20.952167732596397
22.90246470950992,120.27313855539936,21.466845149397848
22.90237138069516,120.27318026287296,24.007353276848793
22.902270773236932,120.27320998072929,24.405952446341512
22.902181155244104,120.27320928081417,23.60089078962803
22.902114927551555,120.27316387507703,23.358318461060524
22.902084988286404,120.27309953685213,23.23983222579956
22.902113577691082,120.27307931301458,20.862472018599508
22.902214162963283,120.27307016377603,20.248915218591687
22.9023649039579,120.27305417777194,20.409382016956805
22.902538595105085,120.27304668908825,19.30559879887104
22.90270295622481,120.27302152314705,19.38687512874603
22.902817315127194,120.27298917998469,19.675945141255855
22.902866607306038,120.27295713878293,19.87010049945116
22.902869740221497,120.27292715036504,19.96200210678577
22.90286425246338,120.27289155644384,20.0294343431592
22.902874112302623,120.27284953860408,19.820183129668234
22.902888537628687,120.27281055804937,19.86101114106178
22.902876189702248,120.27279689304568,20.044032923221586
22.90281320688224,120.27282028366263,19.97684809964895
22.90271449253197,120.27283750581695,20.063674070119855
22.90260630772117,120.2728149587101,20.114576191842556
22.90251326781686,120.27275374854115,20.67281418418884
22.902450938254525,120.27271691323146,20.679702548503876
22.902425414522597,120.27274439989897,20.54701947277784
22.9024207493805,120.27284182077753,20.27649562180042
22.902432051161863,120.27295628781138,20.26401597315073
22.90247284020815,120.27302330929803,20.269702793121336
22.90254355561875,120.27301985266388,20.08490502798557
22.902624211354453,120.27296431649137,19.906103961229324
22.902700090910944,120.2728956229988,19.728054931402205
22.90276809645963,120.27283009036213,20.002038887143133
22.902817653587153,120.27278705018095,19.978820053160188
22.902849706301552,120.27276105026205,19.953305914282797
22.902873658483873,120.27274135484792,19.64327072894573
22.902887832382536,120.27272690878196,19.764488303542137
22.902880473552727,120.27274538406515,19.98741703557968
22.90284628909684,120.27282241431975,19.784512817800042
22.90280505183714,120.27293510939461,19.739897675812244
22.902783482823708,120.27305187936909,19.706015595078465
22.902795263626466,120.27314634516046,20.239240398228166
22.90283597680809,120.27322017843959,20.18581515586376
22.902897066562925,120.27326472358142,19.973205497324464
22.90295715291877,120.27328245474415,19.738512409090994
22.90299447619498,120.27328386980186,19.64033851981163
22.90300142091411,120.27328100210507,19.56983077085018
22.902986434198077,120.27328076540938,19.17558459687233
22.90296634585069,120.2732674317553,19.010986494660376
22.902941720257136,120.27323559758612,18.92266502404213
22.90291019649875,120.27320525838839,17.919440411686896
22.902880703500113,120.27318831874919,17.4822607678771
22.902855043699578,120.27319776123824,17.227800376713276
22.90284265657854,120.27321543934849,18.070157675921916
22.902838095627338,120.27323938496079,18.29613619941473
22.902842709979048,120.27325885911986,18.321559701919554
22.90285029165329,120.27327143913634,18.365942128896712
22.90285611008379,120.2732796391862,18.441638197779653
22.902859593354517,120.27328583950468,18.51358877980709
22.902861480086937,120.2732910281105,18.567468428850173
22.902862459438587,120.27329547568705,18.59889475381374
22.90286301928816,120.27329939139877,18.61528891390562
22.90286332805264,120.27330283335364,18.62117047959566
22.90286355774329,120.27330598422033,18.625870097994802
22.90286371691789,120.27330885563262,18.629404916524887
22.902863813192845,120.27331145788426,18.631808005213735
22.902863852644185,120.27331380059903,18.63313203114271
22.90286384186139,120.27331589242611,18.63342843657732
22.90286378426757,120.27331774231925,18.63275233823061
22.902863683713726,120.27331935618672,18.631202946186065
22.902863543195078,120.27332074060676,18.62883660197258
22.902863364936646,120.27332190185311,18.625734143435952
22.902863149537477,120.27332284534673,18.621986206948755
22.902862899650476,120.27332357577768,18.617666281461716
22.90286261519007,120.2733240982624,18.61285275518894
22.90286229684088,120.27332441602911,18.60762524116039
22.90286194408944,120.2733245340115,18.60204742980003
22.90286155762037,120.27332445574233,18.596197709321974
22.90286113700578,120.27332418499803,18.59012507236004
22.90286068233125,120.27332372439773,18.58389810860157
22.902860191885225,120.27332307832691,18.577559686601163
22.902859666010016,120.273322249892,18.571166147887705
22.902859104277734,120.27332124195576,18.564744438409804
22.902858505918182,120.2733200583555,18.558348450064656
22.9028578707602,120.2733187014058,18.55199900472164
22.9028571976057,120.27331717530943,18.54572059869766
22.902856486283532,120.2733154825637,18.539545077204703
22.902855736536956,120.27331362688413,18.533476114690302
22.902854947424622,120.27331161101164,18.52754310673475
22.902854119459995,120.27330943762627,18.521747278153896
22.902853251444984,120.27330711099171,18.516095977842806
22.902852343294015,120.27330463421436,18.51059532988071
22.902851396376327,120.27330201040063,18.50524655908346
22.90285040932268,120.27329924247418,18.50004599100351
22.902849382133077,120.27329633421142,18.49499852490425
22.90284831592002,120.27329328871878,18.490089462995527
22.902847210170048,120.27329011032083,18.485324929356572
22.902846065567786,120.27328680169762,18.48068532693386
22.90284488322574,120.2732833661992,18.47615840756893
22.90284366314391,120.27327980790649,18.471741721630096
22.90284240652038,120.27327613016958,18.467424245774744
22.902841113954207,120.27327233767849,18.46318393331766
22.902839786386735,120.2732684331742,18.459022009074687
22.902838425786257,120.27326442031126,18.454910302281377
22.902837032067193,120.2732603040843,18.45084146404266
22.90283560728341,120.27325608820884,18.44680937027931
22.902834153060887,120.27325177621762,18.442784625411033
22.90283267085444,120.27324737231343,18.43877212870121
22.902831161776582,120.27324288112543,18.434741259753704
22.902829628565804,120.2732383069782,18.430700592279432
22.90282807216346,120.27323365395272,18.4266097073555
22.902826494965723,120.27322892686085,18.422471054613588
22.90282489902646,120.27322413008812,18.418280959606168
22.90282328674185,120.27321926777638,18.414022274911403
22.902821659909023,120.27321434449388,18.409690101265905
22.90282002049627,120.27320936560068,18.405269740879536
22.90281837149881,120.27320433511684,18.400758744120598
22.902816714799354,120.2731992582806,18.3961546613574
22.902815053221964,120.27319414002565,18.391447694063185
22.902813389162823,120.2731889839457,18.38664029186964
22.902811724333482,120.27318379600989,18.381730005145073
22.902810062242626,120.273178581091,18.376727857232094
22.90280840511528,120.2731733430873,18.37161792552471
22.90280675500531,120.27316808693244,18.366425931155682
22.902805114907935,120.27316281804744,18.361140850782395
22.9028034861924,120.27315754106142,18.35578350627422
22.90280187245297,120.27315226011626,18.350362471342084
22.902800275058883,120.27314698026748,18.344889994144438
22.902798696748636,120.27314170620514,18.33936607468128
22.902797139148202,120.2731364426802,18.333825007796285
22.902795604397024,120.27313119389545,18.328271692752836
22.902794094805703,120.27312596502821,18.32275022292137
22.902792611829057,120.27312075942854,18.317244675695896
22.902791156665174,120.2731155830047,18.311810167789456
22.902789731624658,120.27311043959398,18.30644914883375
22.902788337477705,120.27310533349056,18.301193464040754
22.902786975251253,120.27310026962812,18.2960761834383
22.902785645715493,120.27309525281854,18.291118128895757
22.90278435041083,120.27309028738641,18.28635114562511
22.90278308899495,120.27308537777817,18.28180340439081
22.902782173912183,120.27305700371502,20.007940049886702
22.902776302680216,120.27302218937902,20.747966434836385
22.902778101353142,120.2729723584497,21.044298380494116
22.902789810955223,120.27291954643991,19.923846643567085
22.90280734258207,120.27285825708815,19.876511185586452
22.902818020287768,120.27280824926139,20.221578553736208
22.90282030555572,120.27278233201238,20.201534442424773
22.90281996067743,120.27276647177192,20.194501549839973
22.902819543229217,120.27275058534022,20.204863491892812
22.90281989101715,120.27273535569947,20.193073414564132
22.90282099154688,120.2727255862311,20.142292549610136
22.902821805220025,120.27272267807496,20.09321417868137
22.90282140599987,120.27272318562153,20.132245385229588
22.90281964951677,120.27272282780659,20.12928990459442
22.90281720892522,120.27271787047549,20.110506128787993
22.902814327266004,120.27270825215493,20.04505564445257
22.902809446681946,120.27269531584628,20.02811644130945
