Latitude,Longitude,Altitude (m)
22.90278083939115,120.27305846144293,4.251107412979008
22.902778033603063,120.27305958664056,4.227965027332306
22.902775254085036,120.27306070040616,4.2050851191729315
22.902772501879532,120.2730618023232,4.182469860300422
22.902769777664144,120.27306289165114,4.1601350738257175
22.902767082846204,120.27306396801968,4.138084172576666
22.902764418311804,120.27306503073461,4.116323051437736
22.902761784634293,120.27306607947193,4.094861638635398
22.90275918379436,120.2730671138151,4.073707070082427
22.902756615739868,120.27306813316241,4.052867412462831
22.90275408245151,120.27306913779158,4.032356006830931
22.902751584450506,120.27307012649922,4.012181540384889
22.902749123039943,120.27307109965562,3.992351769551635
22.902746698897417,120.2730720569368,3.972877553328872
22.902744313690867,120.2730729984353,3.953763545572758
22.902741967733036,120.27307392322547,3.935028051450849
22.902739662066384,120.27307483200154,3.9166791376471526
22.90273739815036,120.27307572443956,3.8987282836735253
22.902735176193453,120.2730766002618,3.881190071612597
22.902732997967853,120.2730774599774,3.864072878405452
22.902730864046916,120.27307830340122,3.8473912861347204
22.902728775056115,120.27307913071839,3.8311583255976442
22.902726732090038,120.27307994165119,3.815389199391008
22.90272473593053,120.27308073675506,3.8000941459983593
22.902722787463688,120.27308151640024,3.7852917808443314
22.902720886898,120.27308227998505,3.770995134726167
22.902719035849287,120.27308302866659,3.757221271783114
22.90271723468241,120.2730837622597,3.7439903587251906
22.90271548381435,120.27308448090326,3.731308910951019
22.902713784391825,120.2730851852915,3.7192067131400113
22.902712136623318,120.27308587542444,3.707694934546948
22.90271054149917,120.27308655167234,3.696794052138925
22.902708999227883,120.27308721435918,3.6865260941684252
22.902707510643413,120.27308786399406,3.676908435031772
22.902706076267002,120.27308850085471,3.6679655850380666
22.902704696672,120.27308912517255,3.6597170903831726
22.9027033720669,120.27308973764181,3.652187771633268
22.90270210344204,120.27309033863277,3.645403069868684
22.90270089027619,120.27309092833055,3.6393837723135953
22.902699733924553,120.27309150682774,3.6341593533903365
22.90269863464774,120.27309207514256,3.6297552541792397
22.902697592810622,120.27309263369158,3.6262012593597177
22.90269660856956,120.27309318228963,3.6235256023257976
22.902695682185172,120.27309372167728,3.6217577574998145
22.902694814439304,120.27309425240992,3.620934955731035
22.90269400517559,120.27309477458012,3.6210832586139445
22.902693255175873,120.27309528883583,3.622240517511964
22.902692564388033,120.2730957951308,3.624442722246051
22.90269193317693,120.2730962942981,3.627726483151317
22.902691362220164,120.27309678670802,3.632133995190263
22.90269085104863,120.27309727254568,3.6377059020400053
22.90269040013143,120.27309775227393,3.6444778832644227
22.90269001009405,120.27309822598532,3.652496787682176
22.90268968104073,120.27309869428156,3.66181442822516
22.902689412971473,120.27309915762545,3.6724742408841853
22.90268920625114,120.27309961606329,3.6845258667916063
22.9026890610361,120.27310007005792,3.6980239111930135
22.90268897706574,120.27310051965563,3.7130273229330784
22.902688955434638,120.27310096555065,3.729580158516765
22.902688995777943,120.27310140783557,3.7477618437558418
22.902689098408384,120.27310184660293,3.7676189172118906
22.90268926337809,120.27310228259329,3.789217153385282
22.902689490895554,120.27310271576036,3.8126303934603936
22.902689780700154,120.27310314615042,3.8379337196499113
22.902690133730115,120.27310357436515,3.8651910449117426
22.902690549933308,120.27310400068227,3.8944880001991993
22.902691028788503,120.27310442473149,3.925900908753276
22.90269157102542,120.27310484729963,3.9595203656405213
22.90269217685256,120.27310526838671,3.99542827872932
22.90269284595718,120.27310568822415,4.0337233097702265
22.902693578756264,120.27310610681191,4.074498846143484
22.902694375145565,120.27310652456659,4.117860064998269
22.902695235437825,120.27310694139558,4.163907799884678
22.902696159476672,120.27310735757662,4.212759017720819
22.902697147418476,120.27310777329481,4.264517964884639
22.902698199523854,120.2731081887353,4.319322395518423
22.902699315897053,120.2731086036204,4.37728586371243
22.90270049622533,120.2731090182278,4.4385464338660245
22.90270174102992,120.27310943292775,4.503238137036562
22.90270304984171,120.2731098473963,4.5715080350786454
22.902704423181937,120.27311026186484,4.643506292417646
22.9027058610506,120.27311067674994,4.719386486306787
22.90270736339557,120.27311109163503,4.799309950426221
22.902708930008366,120.2731115066127,4.883451049253345
22.902710561149593,120.27311192186805,4.971976701095701
22.902712257027748,120.27311233758624,5.065079575598241
22.902714017434338,120.273112753397,5.162936829552055
22.90271584231724,120.27311316957804,5.265753853142262
22.902717731989192,120.27311358612934,5.37372145447135
22.90271968634595,120.27311400286577,5.487049057066441
22.902721704970524,120.2731144198799,5.605953220367432
22.902723788123534,120.27311483721802,5.730641196101905
22.902725936013475,120.27311525492641,5.861333887308836
22.90272814864034,120.27311567263479,5.998259022682906
22.9027304254829,120.27311609048203,6.14162757703662
22.90273276727088,120.27311650874582,6.291668520092965
22.902735173222435,120.27311692677819,6.44859158563614
22.90273764380667,120.27311734504198,6.612611471563579
22.902740178345987,120.27311776307434,6.7839372911453255
22.902742777934968,120.27311818124556,6.9627440293729315
22.9027454416354,120.27311859890767,7.149202327638865
22.90274816976002,120.27311901661605,7.3434691760241995
22.90275096215246,120.27311943372275,7.545654405534268
22.902753818656347,120.27311985050547,7.755842406094075
22.90275673948018,120.27312026654765,7.9740716495811945
22.902759724676077,120.27312068208072,8.200323520570995
22.90276277413979,120.27312109682696,8.434529141992332
22.90276588740222,120.27312151069381,8.676525939136745
22.902769064880342,120.27312192354243,8.926083701252939
22.90277230683478,120.27312233546539,9.182877899438143
22.902775612431554,120.27312274599983,9.446471071213486
22.90277898245252,120.27312315523834,9.716307856410744
22.90278241632432,120.27312356318092,9.99172678694129
22.902785914463937,120.27312396936472,10.271906302064659
22.902789476506513,120.27312437378974,10.555928661346437
22.902793102556295,120.27312477627086,10.842719134271146
22.902796792926015,120.27312517685436,11.131101846516133
22.902800547667802,120.27312557516997,11.419788610696793
22.902804366260423,120.27312597140282,11.707434152126314
22.902808249277236,120.27312636509008,11.992641072928906
22.90281219635337,120.27312675641689,12.274023144483568
22.902816208062188,120.27312714501296,12.55023881518841
22.902820283882455,120.27312753041548,12.820074359357358
22.902824424543898,120.27312791327242,13.0824500823617
22.902828629577403,120.27312829265807,13.336510915696623
22.90283289939996,120.2731286690816,13.581633863151074
22.902837234063693,120.27312904184873,13.81746647268534
22.90284163377709,120.27312941119088,14.043916908204558
22.902846098383783,120.2731297769692,14.261134093105795
22.902850628248633,120.27313013867459,14.469487853825093
22.902855223580136,120.27313049639959,14.669503145337107
22.902859884274047,120.2731308501442,14.861776902258399
22.90286461100796,120.27313119963074,15.04695321828127
22.902869403573387,120.2731315448592,15.22560917156935
22.90287426181396,120.27313188532047,15.398216352880002
22.90287653099442,120.27313127784981,15.63853031563759
22.90287162427934,120.27313079756617,15.89575453013182
22.90285181139156,120.27313064663575,16.2276290794611
22.902789590082815,120.27311875627149,17.53461183780432
22.902704576840925,120.27311410043134,18.514220015466215
22.902612173112566,120.27312093497363,19.254639843046668
22.902510032679288,120.27312622698018,20.168912844359877
22.902411010264675,120.27313544340909,20.700336058557035
22.902316573669097,120.27314911448387,21.098223385691647
22.90221815059229,120.27316005858243,21.445644296646122
22.902113055846073,120.27315900725323,21.61357031917572
22.902003271555795,120.27313189462345,21.658421082258226
22.901900272276677,120.27306947061606,21.531997528433802
22.901823298662716,120.27296553965535,21.453800334692005
22.901800271654253,120.27283853384701,21.492316889286045
22.901877255901333,120.27276051775753,20.798292905032636
22.90200786421599,120.27272201971623,20.782237721800808
22.902175108901357,120.27272092769228,20.73843066352606
22.902358724484525,120.27273035465315,20.369156485080723
22.90248130485986,120.27272089389378,20.283160669445994
22.902515172436885,120.2726947697084,20.240969430029395
22.902507192854802,120.27267192131424,20.109561906516554
22.90250169662712,120.27267828714376,20.076474850773813
22.902524384626744,120.27273911509724,19.99898752522469
22.902558013010722,120.27284178950782,19.802000342786314
22.902571685324688,120.27291217758263,19.611019737362863
22.902605984950334,120.27293752826985,19.376292884051804
22.90267249161433,120.27294067744394,19.4138240621686
22.902742651484253,120.27295496600975,19.354965812563897
22.90277232982108,120.27296717832188,19.35722448408604
22.90277018140991,120.27297039058035,19.371275406599047
22.9027542631624,120.27297115680332,19.445446704506878
22.902726265223162,120.2729696685581,19.562184032380582
22.902681914694373,120.27295921950763,19.705181519269946
22.90263061245162,120.27293038152236,19.862079764246943
22.90258806507039,120.2728831500665,20.001088586151603
22.902565876827335,120.27283136442061,20.01212753295899
22.90256807631917,120.27280857538503,20.01798890966177
22.90259060821002,120.27282711897605,19.985095454335216
22.902629120427026,120.27287666906057,19.690605641782287
22.90266960117828,120.27289043800175,19.447706617057325
22.90272185560637,120.27286386108007,19.153754169762138
22.902768233255806,120.27281623763788,19.186653830230238
22.90278676511342,120.27281086986528,19.13080507427454
22.902751607019823,120.27285095340497,19.137940987050534
22.90268535070322,120.2729180193906,19.161447304248814
22.902627744376396,120.27298968125613,19.21203161811829
22.90260408542711,120.27305105585509,19.255204510927204
22.902620629621286,120.27309946522544,19.105996918380264
22.902660058162915,120.27310686729574,18.976560147821907
22.90271523148628,120.27308187227389,18.8114326441288
22.902775387051143,120.27304368192515,18.769611231148247
22.902830443618694,120.27302212907497,18.70378460758925
22.902858751638433,120.273013650127,18.6860478309989
22.90285935564126,120.27301076863338,18.792871824741365
22.902850957510445,120.27303982299392,18.90763839966059
22.902836804099994,120.27310265424961,19.030340109586717
22.902818510184467,120.27317912445936,18.833592445611956
22.9027862186024,120.273209932686,18.708800844013695
22.90274886617716,120.27321387020658,18.547722815692428
22.90270958290269,120.27323256567684,18.583010214626793
22.902687410557192,120.27326075620253,18.534838459789754
22.902685792655237,120.27325840722348,18.48381482189894
22.902723932817345,120.27323896788516,17.44782796919346
22.902767224933857,120.27319557434785,16.78957290285826
22.90282113891028,120.27316693450216,16.15517784678936
22.902878668146993,120.27318464783701,15.081059158265592
22.902901719549078,120.27320013234474,14.137811869025231
22.90290494612719,120.27319571551246,13.186754788637163
22.902901635474468,120.2731664965216,12.766789567887784
22.90291429732944,120.27314474222258,12.224028319060803
22.90292886110529,120.27313033264863,11.655693199872973
22.9029275669401,120.27310891200722,11.468098119676114
22.902918443255313,120.27309847327794,11.262052671611311
22.902899977750444,120.27309894865554,11.17993010532856
22.902874119413568,120.27310217428996,11.342072935938836
22.90285175395187,120.27310869229954,11.556239673256876
22.9028384475944,120.27311611098561,11.769171587407591
22.90283639587164,120.27312328075914,11.856582175314427
22.902840680288673,120.27312642285186,11.906661390662194
22.902845296417304,120.27312556290485,11.93064178067446
22.902846394964392,120.27312320939001,11.933444022595884
22.90284531413917,120.27312129135642,11.958717564105989
22.902845976676275,120.27312131838596,11.999065876483918
22.902850078089,120.2731227472032,12.08657202357054
22.902857670917456,120.2731249610808,12.188405842483045
22.902866602476387,120.27312680478312,12.31244786298275
22.902859078606827,120.27311674710573,13.14765991485119
22.90284875468273,120.27311380384681,13.849508582592012
22.902837828840727,120.27311984476631,14.43798310917616
22.90282506821243,120.27312971110781,14.86283798146248
22.90281128607503,120.27313995021645,15.169990005850794
22.90279913591283,120.27314934289284,15.41778488725424
22.902790789436033,120.2731573918673,15.637441933810713
22.902786828703636,120.2731637549198,15.837508107483389
22.90278603856911,120.2731686506935,16.020914717137817
22.902785908052792,120.2731731335723,16.218145141124726
22.902786211826395,120.27317752420812,16.41739223611355
22.902786923567735,120.27318180954903,16.618785069048407
22.90278801247204,120.27318597469176,16.822535855770113
22.90278944408593,120.27319000255768,17.02877614527941
22.90279118009889,120.27319387629963,17.237321024358273
22.902793178186954,120.27319757814473,17.44750902491808
22.902795393941208,120.2732010907367,17.65798246198893
22.902797782223022,120.27320439769119,17.866537269294263
22.902800297581024,120.27320748484543,18.069931880891325
22.902802895345697,120.27321033988802,18.263822697699073
22.902805533505795,120.27321295286805,18.442729338705544
22.902808172135003,120.27321531661153,18.600161225855352
22.90281077495562,120.27321742482394,18.72893032318354
22.902813307826992,120.2732192732472,18.821693466186527
22.902815740413466,120.27322085725292,18.871673399269582
22.902818043473964,120.27322217276821,18.87354114687443
22.90282019021719,120.27322321391505,18.824132086813453
22.90282215442522,120.27322397213098,18.7229634590745
22.902823912069284,120.27322443843701,18.572213268339635
22.90282543859939,120.27322459959608,18.376277236878874
22.902826710977113,120.2732244404272,18.14107134664059
22.902827706893756,120.2732239432038,17.873281017124654
22.90282840518733,120.27322308728344,17.57993667370081
22.902828784852208,120.27322185021866,17.26843980920315
22.90282882738468,120.27322020734033,16.94710283124447
22.90282851459378,120.27321813305372,16.625983033239844
22.90282783094681,120.27321560023668,16.317530411183835
22.902826760546212,120.27321258033233,16.036345663130284
22.902825290100594,120.27320904515403,15.797671098768713
22.902823405953693,120.27320496466379,15.614945813655854
22.902821096169312,120.27320031090639,15.497468832910062
22.90281834865489,120.27319505389015,15.449222616374495
22.902815151005115,120.27318916542842,15.469174628496171
22.902811490814685,120.27318261751971,15.552664807975294
22.902807354479464,120.27317538308816,15.693188925445082
22.90280272714436,120.27316743565964,15.883944904744627
22.902797591660857,120.27315875028737,16.11896588176489
22.90279192973375,120.27314930429242,16.393730790376665
22.90278571915857,120.27313907555128,16.705393952667716
22.90277893616718,120.27312804555059,17.052670904338363
22.90277155313432,120.27311619661005,17.435427614331246
22.902763540037064,120.27310351452061,17.85387381643057
22.90275486554941,120.27308998905366,18.307240073084834
22.90274549427976,120.27307561197071,18.791644447743895
22.90273539276506,120.2730603817907,19.297174847304824
22.90272452639555,120.27304430212375,19.804633804857733
22.9027128646792,120.27302738417045,20.28391149157286
22.90270038165869,120.27300964947575,20.697752237617973
22.902687059768528,120.27299113386309,21.01362993204594
22.902672891867844,120.27297189058159,21.21918641495705
22.902657881605258,120.27295199507331,21.32902238440514
22.90264204216792,120.27293154402446,21.376032536745075
22.902631211502754,120.27292004336708,21.143860960721973
22.902616029859317,120.27290648786214,21.041764043807987
22.902603430030872,120.27289262489607,20.950702350616456
22.902595702620495,120.2728805233403,20.87489289534092
22.90258802514407,120.27286831727645,20.780484148800376
22.902573157907355,120.27285316855536,20.68495475369692
22.90255217954639,120.27283779187657,20.534696010172368
22.902541695656407,120.27282739512643,20.38904148167372
22.9025674476621,120.2728297976786,20.192770372569562
22.902636644296585,120.27284397670297,19.996931141316892
22.902718756365065,120.27285818357844,19.77972140258551
22.902770175936983,120.27286046357197,19.61426006227732
22.9027723334697,120.2728532778075,19.533320195972923
22.902750767576816,120.27286048879647,19.497069759070875
22.902739186442822,120.27289494244864,19.478789412081245
22.90275357372976,120.2729425940659,19.423171487391
22.90277828170916,120.27296618331967,19.390579601943497
22.90278805260685,120.27295392294215,19.386317910730842
22.902763681499238,120.27292432347797,19.473050897181036
22.902718540001953,120.2729126619855,19.55852548092604
22.902676441869975,120.27292400229376,19.63578942137957
22.902655327676136,120.27293738106525,19.549408886969093
22.902646001336624,120.27291707187526,19.489238870441916
22.90263509728209,120.2728704132006,19.411119861483577
22.90260910884588,120.27282357620726,19.41937021768093
22.902573918852926,120.27280844052653,19.393332202732566
22.902543103762763,120.27282214860496,19.36345196413994
22.90252867279664,120.27284459692473,19.32367328375578
22.902527479802444,120.27285358138083,19.282225420296193
22.902531696772147,120.27284939318895,19.246713395237926
22.90253564963395,120.27284292227279,19.237523580610755
22.902541863440764,120.27284239214184,19.228447940588
22.902555751752978,120.27284481628526,19.22092482697964
22.902578824212807,120.27284573931667,19.24703854465485
22.902603595417563,120.27284996041611,19.26756763494015
22.902617699258922,120.27285643704826,19.2979691054225
22.902618362421503,120.2728636190869,19.281917645275595
22.90260759878668,120.2728688583303,19.28984036999941
22.902589734522117,120.27287499473262,19.30045612615347
22.902565346787227,120.2728825059625,19.31712561839819
22.902535099995546,120.2728864956214,19.336808327376843
22.902501546147644,120.27288598326331,19.35862808710337
22.902468440193797,120.27288467654189,19.42807106715441
22.902449640631787,120.27290165406203,19.46926327878237
22.90245326574335,120.27293935824913,19.49218507164717
22.902484525756552,120.27298858489313,19.428694063365462
22.90252689200991,120.27302150216526,19.379266387879852
22.90256343642239,120.27303626115632,19.332880472779276
22.90257395883137,120.2730441296715,19.36196893531084
22.902560846580435,120.27306191368125,19.381610690355302
22.90253822748759,120.27308767830475,19.40775915682316
22.902524452647427,120.27311824632014,19.282201840758326
22.902519529930547,120.27314001529102,19.20267302364111
22.902526160774517,120.27315540426963,19.110931246936325
22.902536483656153,120.27316244463455,19.148817359149458
22.902550438529605,120.27316607696187,19.1500683156848
22.902562617307403,120.27316307779253,19.16685570561886
22.902574821781908,120.2731524355548,19.172491215169433
22.902587601695764,120.27314187107334,19.184671908020974
22.902598264368084,120.27314371796922,19.196013665735723
22.90260616779827,120.27315787344688,19.273816212475303
22.902614769365666,120.27317460385953,19.32331338554621
22.902623683776085,120.27318243747698,19.37440155690909
22.90263522123089,120.27317980181806,19.32923309057951
22.902652804864527,120.27316978329648,19.30215757596493
22.902685386928795,120.2731587566282,19.2367045019269
22.902734478994468,120.27314889597957,19.127059650838376
22.90278557509024,120.2731400973979,19.009830875754357
22.902819457574477,120.27313203722284,18.91136644870043
22.902827902303372,120.27312492683102,18.903751498997213
22.902824901939645,120.27312323697497,18.900579430639745
22.902825755768635,120.27312759516607,18.907601168811322
22.902837873249634,120.27313747025515,18.813773223519327
