Latitude,Longitude,Altitude (m)
22.904576813816927,120.27490590051448,18.83316106450558
22.904578921029206,120.27490796486181,18.835875224590303
22.90458101525931,120.27491001502435,18.838590557098392
22.904583097418264,120.27491205146467,18.84130237233639
22.904585166595044,120.27491407372021,18.844014187574388
22.904587223700677,120.27491608179099,18.846728347659113
22.904589268507404,120.27491807598534,18.849435473203663
22.904591300331955,120.27492005599493,18.852144943594936
22.904593318946574,120.27492202120301,18.854856758832934
22.904595325034528,120.27492397191794,18.85756271195412
22.90459731882358,120.27492590921902,18.860269837498667
22.904599299858212,120.27492783110186,18.862975790619853
22.904601266999634,120.27492973879993,18.86567939889431
22.90460322138664,120.27493163231323,18.868383007168774
22.904605163019227,120.27493351040827,18.871088960289956
22.90460709144188,120.27493537462692,18.873789051294327
22.90460900642684,120.27493722388989,18.876489142298702
22.904610909112893,120.27493905850552,18.879190405726433
22.904612796994712,120.27494087770293,18.88188815188408
22.90461467257763,120.27494268256137,18.88458707046509
22.904616535178366,120.27494447261832,18.88728247177601
22.904618383202624,120.27494624741121,18.88998021793366
22.90462021870022,120.2749480074026,18.892674446821214
22.904622039621337,120.27494975166739,18.89536750328541
22.904623847788038,120.27495148174741,18.89806173217297
22.904625642517043,120.27495319548409,18.900750098943714
22.904627422441813,120.2749548942651,18.903440810561182
22.904629189384405,120.27495657839876,18.90613152217865
22.904630942661548,120.27495824665166,18.908818716526035
22.904632681817727,120.27495989994887,18.911505910873416
22.904634405941913,120.27496153705694,18.914191932797433
22.904636116856164,120.27496315890095,18.916875609874726
22.904637814104966,120.2749647654809,18.919559286952023
22.904639496777286,120.27496635571754,18.922241791605952
22.904641165328645,120.27496793053594,18.924921951413157
22.904642819759037,120.27496948962774,18.927600938797
22.904644459612953,120.27497103268458,18.93027992618084
22.904646085345902,120.27497256001482,18.93295656871796
22.90464769673013,120.27497407146427,18.935632038831713
22.904649293082365,120.27497556687877,18.938307508945467
22.904650875085878,120.27497704610413,18.940980634212497
22.904652442740666,120.27497850944869,18.9436514146328
22.90465399581898,120.27497995629575,18.946322195053103
22.90465553340978,120.27498138695367,18.948992975473406
22.904657056879618,120.27498280111406,18.95166023862362
22.90465856531746,120.27498419923951,18.954325156927112
22.904660058723312,120.27498558055908,18.956991247653963
22.90466153686941,120.27498694584368,18.959653821110727
22.90466300043903,120.27498829416822,18.96231639456749
22.904664448748896,120.27498962614943,18.964977795600895
22.90466588202677,120.27499094101641,18.96763685178757
22.90466729981713,120.27499223984843,18.97029356312752
22.904668702119984,120.27499352141201,18.972951446890832
22.90467009007412,120.2749947864781,18.975605813384057
22.90467146162971,120.2749960339674,18.97825900745392
22.904672818153312,120.27499726542173,18.980913373947146
22.904674158733886,120.27499847899091,18.983561878323556
22.904675483826953,120.27499967575422,18.986211555123333
22.904676793432508,120.27500085555747,18.988861231923106
22.904678087322797,120.27500201793812,18.991503874182705
22.904679365270063,120.27500316305034,18.994148861289027
22.90468062772982,120.27500429073996,18.99679384839535
22.90468187356328,120.27500540116115,18.99943297338486
22.904683103681474,120.27500649400557,19.00207209837437
22.9046843180844,120.27500756896482,19.004711223363877
22.9046855165443,120.27500862742657,19.0073468310833
22.90468669837791,120.27500966738644,19.009980093955996
22.904687864496246,120.27501068961534,19.012614529252055
22.904689013305017,120.27501169411327,19.015248964548114
22.904690146854037,120.27501268103443,19.017875192880634
22.904691263321244,120.2750136502246,19.020502593636515
22.904692362934394,120.27501460075871,19.0231299943924
22.904693446604522,120.27501553340767,19.025752705454828
22.904694514331627,120.27501644878821,19.028376588940624
22.90469556406589,120.27501734505014,19.030999300003053
22.904696597401614,120.27501822342693,19.03361614894867
22.904697614566555,120.27501908391855,19.036232997894288
22.9046986135109,120.27501992513739,19.038849846839906
22.90469959696773,120.27502074862525,19.041463178515436
22.904700562431724,120.27502155361124,19.0440753377676
22.90470151126942,120.2750223396328,19.046685152173044
22.90470244348082,120.27502310746084,19.04929262173176
22.904703357699375,120.27502385647864,19.051898918867114
22.904704254152847,120.27502458668619,19.054504043579104
22.904705134207784,120.27502529808349,19.05710799586773
22.904705996953147,120.27502599082474,19.059707258462907
22.904706841477914,120.27502666444738,19.062305348634723
22.904707669148625,120.27502731910559,19.064903438806535
22.904708478826496,120.27502795495354,19.0674968392849
22.904709271194797,120.2750285716829,19.0700890673399
22.90471004511474,120.27502916913946,19.072680122971537
22.904710801952874,120.27502974701486,19.07527000617981
22.904711540114892,120.27503030608001,19.077856372118
22.90471226142286,120.27503084556402,19.08044156563282
22.90471296405471,120.27503136546686,19.083022069454195
22.904713648238204,120.27503186548019,19.08560257327557
22.90471431556764,120.27503234637489,19.088183077096943
22.904714963765453,120.27503280799681,19.090757718801502
22.90471559419818,120.27503324957503,19.09333236050606
22.904716205954795,120.27503367095535,19.095904657363892
22.904716798579777,120.2750340730629,19.098474609375003
22.904717373895192,120.27503445558928,19.101041044116023
22.904717930306738,120.27503481776358,19.103608651280407
22.90471846781441,120.27503515958583,19.106170396327975
22.904718986645968,120.27503548121018,19.10873096895218
22.90471948702917,120.2750357830992,19.11129154157639
22.9047199685085,120.27503606463615,19.113848596930506
22.904720430856198,120.27503632551267,19.11639979016781
22.904720875438816,120.27503656680803,19.118952155828477
22.904721299978775,120.27503678728877,19.121503349065783
22.904721705387104,120.27503698757162,19.124049852609637
22.90472209189156,120.27503716703987,19.126595183730128
22.904722458808873,120.27503732584768,19.12914051485062
22.904722806822313,120.27503746368669,19.131678811430934
22.904723135704128,120.275037581482,19.134215935587886
22.904723444543283,120.27503767815432,19.1367542321682
22.904723734250805,120.27503775385784,19.1392866666317
22.90472400391567,120.2750378084384,19.141816756248478
22.904724254904423,120.27503784235851,19.144348018288614
22.904724485850515,120.2750378546931,19.146871073365215
22.904724696753952,120.27503784605888,19.149396473288537
22.904724887842484,120.27503781676424,19.15191718351841
22.90472505957163,120.27503776588406,19.154434376478196
22.90472521103036,120.27503769372673,19.15695039701462
22.904725342218672,120.27503759998388,19.159464072704317
22.904725453592082,120.27503748465548,19.161974231123928
22.904725544467322,120.27503734804993,19.16448204469681
22.90472561598317,120.27503719016723,19.16698868584633
22.904725665862063,120.27503700961971,19.169492982149126
22.904725696381565,120.27503680856593,19.171990243911747
22.90472570594738,120.275036584539,19.174488678097728
22.90472569501502,120.27503633969745,19.176984767436984
22.90472566335673,120.27503607203691,19.179474994659426
22.904725611428024,120.27503578248248,19.18196639430523
22.904725538773384,120.27503547165088,19.18445427668095
22.904725445165056,120.2750351380003,19.18693864178658
22.904725330830797,120.27503478245583,19.189418317198754
22.90472519531509,120.2750344047091,19.191899165034297
22.904725039073455,120.27503400445175,19.19437297832966
22.904724861650372,120.27503358137542,19.196846791625024
22.904724663045844,120.2750331364052,19.199318260073664
22.904724443487623,120.27503266892434,19.20178386640549
22.904724202292446,120.27503217862451,19.204249472737313
22.90472393991582,120.2750316655057,19.20671156179905
22.904723656357746,120.27503113018462,19.209168961167336
22.904723350707197,120.27503057173618,19.21162518811226
22.9047230238752,120.27502999077713,19.214077897787096
22.904722675634,120.27502938669073,19.216528262615206
22.90472230575584,120.27502875947698,19.21897511017323
22.904721913329688,120.27502810929006,19.221419612884524
22.90472149972209,120.2750274359758,19.223861770749096
22.90472106447753,120.27502673968836,19.226298066496852
22.90472060668498,120.27502601996521,19.22873201739788
22.90472012702771,120.27502527680633,19.23116479587555
22.904719625277963,120.27502451082849,19.23359405708313
22.904719101207984,120.27502372110655,19.23601862859726
22.904718555273284,120.27502290733217,19.238442027688027
22.904717986562837,120.27502207058461,19.24086190950871
22.904717395532156,120.27502121040135,19.243277101635936
22.904716782408997,120.27502032601147,19.245689948916436
22.904716146737847,120.27501941849422,19.248100451350215
22.904715487607678,120.27501848661618,19.25050626409054
22.904714807068302,120.27501753099405,19.252910904407504
22.90471410352542,120.27501655131947,19.255309682607653
22.90471337652352,120.27501554759245,19.257707288384438
22.904712626973627,120.27501452012135,19.26010137689114
22.904711854875742,120.27501346828944,19.262489603281022
22.904711059091078,120.2750123922509,19.264876657247545
22.90471024098618,120.27501129185156,19.267261366367343
22.904709398966748,120.27501016709141,19.269641385793687
22.904708534171565,120.27500901827881,19.272016715526583
22.90470764614512,120.2750078449512,19.274390872836115
22.904706734431894,120.27500664695445,19.27676151287556
22.904705799487406,120.27500542428851,19.279127463221553
22.904704840400623,120.27500417757012,19.281489896297458
22.904703858310334,120.27500290479492,19.283849984526636
22.904702853216538,120.27500160827564,19.286204210639003
22.904701823752692,120.27500028662465,19.288557264328006
22.904700770374312,120.27499893968773,19.29090797317028
22.904699693764666,120.27499756854421,19.293251647472385
22.904698593012725,120.27499617226896,19.295591804504397
22.904697467890735,120.27499475055362,19.297930789113046
22.904696318398692,120.27499330370657,19.300265084028247
22.90469514521987,120.2749918315736,19.302594689249993
22.904693947898753,120.27499033415474,19.30492312204838
22.90469272711862,120.27498881144996,19.30724452030659
22.904691480829644,120.27498726361347,19.309563573718073
22.904690209715103,120.27498568972017,19.311880282282832
22.9046889153693,120.2749840910035,19.3141934735775
22.9046875968812,120.27498246669258,19.316499630331997
22.90468625197323,120.27498081617065,19.318803442239762
22.904684883378486,120.27497913990027,19.321106081724167
22.90468349018593,120.274977438344,19.323401686668397
22.90468207194005,120.27497571042252,19.32569377434254
22.904680628868608,120.27497395721517,19.327983517169955
22.904679161199354,120.27497217748844,19.330267397880558
22.90467766802126,120.27497037216745,19.332546588897706
22.90467614956209,120.2749685401729,19.334826952338222
22.904674606960622,120.2749666825841,19.33709793639183
22.9046730383948,120.2749647987843,19.339365403175357
22.904671444092386,120.27496288846513,19.34163169753552
22.90466982405337,120.2749609516266,19.3438909573555
22.904668180099822,120.27495898857707,19.346149044752124
22.90466650995416,120.27495699931654,19.348402442455296
22.90466481384415,120.27495498338249,19.350648805618288
22.904663092908567,120.27495294092905,19.35289399635792
22.90466134555312,120.27495087118534,19.3551344974041
22.904659572688832,120.274948775539,19.357367963910104
22.90465777386019,120.27494665275658,19.359600257992746
22.90465594975047,120.27494450376315,19.3618290348053
22.904654099220878,120.27494232763364,19.36405194950104
22.90465222227142,120.27494012405967,19.366269002079967
22.904650318902092,120.27493789396632,19.368483709812168
22.90464838979617,120.27493563658273,19.37069490027428
22.904646434953648,120.27493335237138,19.37290140104294
22.90464445255247,120.27493104071559,19.375100867271424
22.904642443959183,120.27492870192371,19.37730033349991
22.904640410084813,120.27492633614992,19.379490420341494
22.904638349335062,120.27492394231494,19.381679334759713
22.904636261937682,120.2749215219606,19.383863559484485
22.90463414698165,120.27491907385344,19.38604074966908
22.90463200606126,120.27491659768509,19.388215595006944
22.904629837809974,120.27491409468901,19.390388095498086
22.90462764291106,120.27491156363176,19.392551216602328
22.904625421136764,120.27490900513004,19.394711992859843
22.904623172714842,120.27490641872132,19.396868079423907
22.90462089673426,120.27490380455978,19.39901947629452
22.90461859319503,120.27490116218287,19.40116501104832
22.904616263235926,120.27489849297824,19.403309373378757
22.904613905490407,120.27489579478733,19.405445528745652
22.904611520413994,120.27489306853523,19.407578166842463
22.904609108234435,120.27489031514703,19.40970611524582
22.904606668268467,120.27488753292675,19.41182937395573
22.90460420074384,120.27488472295364,19.41394559812546
22.904601706116072,120.27488188384007,19.416059477448467
22.90459918279086,120.27487901743623,19.418169839501385
22.90459663213475,120.27487612266283,19.420271994590763
22.904594053919986,120.27487319874898,19.42237063241005
22.904591447235536,120.27487024677394,19.424465752959254
22.9045888136757,120.27486726612098,19.426552666544918
22.904586150962906,120.27486425725266,19.428637235283855
22.904583460235944,120.27486121939805,19.43071711432934
22.904580741950323,120.27485815301972,19.432788786411287
22.90457799496726,120.27485505780929,19.43485459637642
22.90457522042554,120.27485193392094,19.436921578764917
22.90457241673086,120.27484878120049,19.43897800934315
22.904569584794253,120.27484559980213,19.441032095074657
22.904566724387962,120.27484238895494,19.44308149111271
22.904563835284225,120.27483914942984,19.445121507763865
22.9045609177108,120.27483588138101,19.447160351991656
22.904557971212178,120.2748325834208,19.449190989255907
22.90455499601611,120.2748292564743,19.451219281673435
22.90455199189484,120.27482590054154,19.453240539550784
22.904548959531645,120.27482251531413,19.45525710773468
22.904545897104462,120.27481910048371,19.45726898622513
22.90454280552432,120.2748156568212,19.459272657752038
22.904539686613276,120.27481218401822,19.46127281200886
22.904536537638243,120.2748086809955,19.463269448995593
22.904533358599227,120.27480514914069,19.46525553417206
22.90453015131828,120.27480158752869,19.467240446925164
22.904526913973342,120.27479799569694,19.469218325138094
22.904523647475447,120.27479437457055,19.471191513657573
22.904520351824594,120.27479072445789,19.473157667636873
22.904517025881997,120.27478704381711,19.47512147676945
22.904513670558682,120.2747833338817,19.47707473409176
22.904510285399137,120.27477959372655,19.479025646567347
22.90450687131439,120.27477582366002,19.48097186934948
22.90450342671014,120.27477202429884,19.482908712744717
22.904499952041903,120.27476819471794,19.484840866446497
22.904496447537433,120.27476433460893,19.486770675301553
22.904492913652245,120.27476044489691,19.488689932346347
22.904489348792044,120.27475652481097,19.49060449969769
22.904485754095607,120.27475257512201,19.49251554977894
22.9044821297907,120.27474859505915,19.49442073774338
22.90447847451077,120.27474458446817,19.496316546320916
22.90447478916686,120.2747405433491,19.49821001005173
22.90447107330344,120.27473647262701,19.500096439242366
22.904467327148275,120.27473237137681,19.501973489046097
22.904463550473608,120.27472823959853,19.50384936642647
22.904459743279435,120.27472407729213,19.505718209266664
22.90445590488249,120.27471988384092,19.50757884514332
22.904452035966038,120.27471566109504,19.509435963749887
22.904448136757843,120.27471140720434,19.511284875392917
22.904444206119113,120.27470712247717,19.51312675249577
22.904440244505366,120.27470280722189,19.514965112328532
22.904436252372115,120.27469846113016,19.51679995489121
22.904432229036086,120.27469408420194,19.51862190079689
22.904428174497284,120.27468967720817,19.520439157009125
22.90442408921122,120.27468523906958,19.522255240798
22.904419972039108,120.27468076963197,19.52405842792988
22.904415824347492,120.2746762693579,19.525858097791673
22.90441164454207,120.27467173855571,19.527653077960018
22.904407434217145,120.2746671766087,19.52943985116482
22.904403191550657,120.27466258367103,19.53122076225281
22.904398918136906,120.2746579598969,19.532994638800623
22.904394612381594,120.2746533045154,19.534762653231624
22.90439027587902,120.27464861829742,19.536522460699082
22.904385906807125,120.27464390124297,19.538276406049732
22.904381505849184,120.27463915242696,19.540025661706927
22.904377073460708,120.27463437246612,19.541766710400584
22.90437260941394,120.27462956166882,19.5434995521307
22.90436811325337,120.27462471910994,19.545230049014094
22.904363585206745,120.27461984525206,19.546951166510585
22.904359025046322,120.27461494040352,19.548665249466897
22.904354432316573,120.27461000348507,19.550375815153124
22.904349808611805,120.27460503557596,19.552074656605722
22.904345151882204,120.27460003636783,19.55376880836487
22.904340462127767,120.27459500524397,19.555458270430567
22.904335740715037,120.2745899426669,19.557138353109362
22.904330987188505,120.27458484848246,19.55881140124798
22.904326200864894,120.27457972284482,19.560478587269785
22.904321381516443,120.2745745663707,19.56213756632805
22.90431653073746,120.27456937720994,19.563791855692866
22.904311646933646,120.27456415659599,19.56543676567078
22.90430672942172,120.27455890422046,19.56707698595524
22.904301780479262,120.27455362039174,19.5687078268528
22.90429679805645,120.27454830480146,19.570332805633548
22.904291782836562,120.27454295714125,19.57195192229748
22.90428673550287,120.27453757771949,19.573561659574512
22.90428165332228,120.27453216653615,19.57516553473473
22.904276539938913,120.27452672328289,19.576763547778132
22.904271392619684,120.27452124826807,19.578349836587908
22.904266212275616,120.2745157414917,19.579932608127596
22.9042609984512,120.27451020279956,19.58150834512711
22.9042557518297,120.27450463188333,19.58307470273972
22.904250471955613,120.27449902905136,19.58463402581215
22.90424515882893,120.27449339430363,19.58618748676777
22.9042398122219,120.27448772748599,19.58773156833649
22.904234431678997,120.27448202844423,19.58927213263512
22.904229017655748,120.27447629733255,19.590800972700123
22.90422357083542,120.27447053445931,19.592325123071674
22.90421808985147,120.27446473936195,19.593839894056323
22.90421257584268,120.27445891219467,19.595347630500797
22.904207026987,120.27445305249492,19.59684833240509
22.904201445561995,120.2744471611878,19.59834082734585
22.904195829517857,120.27444123750237,19.59982628774643
22.90419018022112,120.27443528143866,19.601303541183473
22.904184496760763,120.27442929330502,19.602772587656975
22.90417877913678,120.27442327294727,19.604234599590303
22.904173028260207,120.27441722021123,19.60569074940682
22.90416724230898,120.27441113525109,19.607136347413064
22.904161423332916,120.27440501806683,19.60857491087914
22.90415556996547,120.27439886865847,19.610007612228397
22.904149682206647,120.27439268671762,19.611430934190754
22.904143760284196,120.27438647286104,19.612843704342843
22.904137803970368,120.27438022662616,19.61425295722485
22.904131813492917,120.27437394739627,19.61565165829659
22.904125788168567,120.27436763702154,19.61704332482815
22.904119729819385,120.27436129334343,19.618430301666262
22.904113636167793,120.27435491790376,19.619804381847384
22.90410750789706,120.27434850946908,19.621171427488328
22.90410134477943,120.27434206911863,19.62253261101246
22.90409514818145,120.27433559623573,19.62388324272633
22.90408891650882,120.2743290911287,19.62522683990002
22.904082650672564,120.27432255379757,19.626561057686807
22.904076349078384,120.27431598347144,19.627890585780147
