Latitude,Longitude,Altitude (m)
22.90326561990533,120.27347204978906,11.545319840312002
22.90325986293461,120.27347079330721,11.523712408542632
22.903254089713602,120.27346946318235,11.502314175665378
22.903248300766506,120.27346805775962,11.48112269490957
22.903242495743857,120.27346657688383,11.46014897674322
22.90323667613089,120.2734650198827,11.439394244551657
22.903230841840248,120.27346338572193,11.41886339187622
22.903224993396126,120.27346167414292,11.398562535643576
22.903219131497462,120.27345988431823,11.378494122624396
22.903213255882157,120.27345801593756,11.358665493130683
22.903207367685987,120.27345606796662,11.33908398747444
22.903201466908943,120.27345403962964,11.319752052426336
22.90319555424997,120.27345193056465,11.300677028298377
22.903189630233264,120.27344974020275,11.281863808631895
22.903183694858832,120.27344746781993,11.263322180509567
22.903177748912977,120.27344511289904,11.245057037472725
22.90317179248306,120.2734426745092,11.227073273062706
22.903165826355394,120.27344015234011,11.209384344518183
22.90315985096681,120.27343754556432,11.191993921995161
22.903153866317304,120.27343485376811,11.17491423934698
22.903147873455293,120.27343207612402,11.158150190114974
22.903141872293396,120.27342921227006,11.141711561381817
22.90313586335583,120.27342626168905,11.125610587000846
22.90312984672995,120.27342322355358,11.109859500825404
22.903123823726272,120.27342009724302,11.094465643167494
22.903117793820588,120.27341688249881,11.079442471265791
22.903111757973935,120.27341357844178,11.06480344235897
22.903105716273686,120.27341018465822,11.050559566915034
22.903099669069306,120.27340670063096,11.036727972328661
22.903093617234468,120.27340312553254,11.023320892453192
22.903087560769173,120.2733994590527,11.01035790145397
22.903081499760784,120.27339570062254,10.997856126725672
22.903075435082975,120.27339184956978,10.98583147227764
22.903069367172584,120.27338790563581,10.974302288889884
22.903063295767506,120.2733838679932,10.963293044269085
22.90305722200351,120.27337973622824,10.952826982736587
22.903051145967975,120.27337550992718,10.94292490184307
22.90304506766089,120.27337118810743,10.933611269295215
22.903038988043303,120.27336677082073,10.924919116497039
22.903032907377305,120.27336225708444,10.91687535792589
22.903026825226068,120.27335764695032,10.909511801600456
22.90302074272536,120.27335293943574,10.90286147892475
22.90301466004992,120.27334813412699,10.896961091458797
22.903008577287114,120.27334323071378,10.891854681074618
22.903002495397978,120.27333822836864,10.887581396102904
22.902996414120413,120.27333312683302,10.884185278415679
22.90299033415335,120.27332792538289,10.881721380352973
22.902984255409432,120.27332262381138,10.880238637328146
22.902978178500224,120.27331722170479,10.879795771837234
22.902972103775195,120.27331171802876,10.880457623302936
22.902966031496444,120.27330611288677,10.882287807762621
22.902959962275542,120.27330040545137,10.885358504950998
22.902953895763027,120.27329459530878,10.889748011529445
22.90294783274519,120.2732886818902,10.895543187856672
22.902941773484148,120.273282664937,10.902834564447401
22.90293571824199,120.2732765437769,10.911717565357684
22.90292966736819,120.27327031799616,10.922299848496912
22.90292362112485,120.27326398712937,10.934695188701152
22.90291757977407,120.27325755065935,10.949027147889137
22.90291154392742,120.2732510082241,10.965429075062273
22.902905513497533,120.273244359203,10.984040436148643
22.90289948909598,120.27323760307895,11.005016601085662
22.902893471072225,120.27323073959334,11.028520280122756
22.902887459164173,120.27322376807388,11.054728864133358
22.90288145442023,120.27321668800339,11.083829531073569
22.90287545666565,120.27320949922675,11.116026586294174
22.902869466686752,120.27320220101993,11.151530452072619
22.902863484483532,120.27319479322779,11.190572348237037
22.90285751023072,120.27318727522973,11.233393281698225
22.902851544627254,120.27317964666375,11.28024404644966
22.902845588022604,120.27317190721956,11.331393787264822
22.902839640678874,120.27316405658685,11.387123882770537
22.90283370259606,120.2731560943002,11.447720605134963
22.902827774997302,120.27314802010103,11.513484907150268
22.90282185770787,120.2731398339376,11.58471774160862
22.902815951514064,120.27313153560308,11.661729848384857
22.902810056634305,120.27312312478716,11.744823403656481
22.902804173374374,120.2731146016967,11.834300583600998
22.902798302695313,120.27310596607313,11.93044766038656
22.902792444859223,120.27309721853705,12.033527661859988
22.90278660078346,120.2730883590367,12.143781594932078
22.902780770992223,120.27307938824443,12.261401531100272
22.902774955878666,120.27307030626363,12.386539170145987
22.902769156840666,120.27306111423208,12.519275255501269
22.90276337422769,120.27305181282208,12.65961957424879
22.902757609131825,120.27304240311962,12.807488936185836
22.902751862819894,120.27303288659863,12.962699833512305
22.90274613572874,120.27302326462956,13.12495131343603
22.902740429824117,120.27301353925517,13.293821308016776
22.902734746154433,120.27300371238896,13.468750730156897
22.902725414862715,120.2729894507303,13.85374275445938
22.902713972038132,120.27297601840863,14.232882103323934
22.902696178495706,120.2729604320294,14.603177599608896
22.902659157366514,120.27293079881805,15.45078667104244
22.90261395526514,120.27290499780914,16.263639365136623
22.902566475065427,120.27288450589636,17.00853422731161
22.902515551377025,120.27286761649124,17.752720749378202
22.902464039052475,120.27285601859894,18.43049090504646
22.90241707008162,120.27284797486024,19.037905393540857
22.902378267361588,120.2728399863538,19.610654035210608
22.902347111014173,120.2728322530379,20.105400851368902
22.90231845874022,120.27282475280414,20.547018489241598
22.902290456958347,120.27281981872359,20.875424048304556
22.902267950012995,120.27281377368882,21.21902405321598
22.902262983562053,120.27280441042697,21.54029727578163
22.902292796606833,120.27279792495644,21.32741354703903
22.90233784869882,120.27276663568276,21.35541439056396
22.90237526276175,120.27272808388601,21.354978865385053
22.90239935586856,120.27271155433733,21.16723570525646
22.902402606974796,120.27271408459991,21.04124659001827
22.90238349204797,120.27273303542059,20.91650043427944
22.902348960227187,120.27276395366079,20.88038609921932
22.902315518529967,120.27280503970222,20.830865907669065
22.9022925810284,120.27285085733182,20.79696834683418
22.902276214093177,120.27289980184086,20.778098851442333
22.902260900510875,120.27295403905218,20.758328944444653
22.902249260018124,120.27301320217299,20.739589127898213
22.902250426806358,120.27307280562616,20.670998805761336
22.902268918193865,120.27312397907691,20.610991755127905
22.902301975661295,120.27316344706696,20.521491330862045
22.902343389960055,120.2731923527176,20.387350799143313
22.90238718309147,120.27321276180788,20.229721269011495
22.902432422585985,120.27322754465621,20.053857180476186
22.902484696358897,120.27323991642051,19.735271735489366
22.902544865631846,120.2732364435121,19.489487504959104
22.902609719705897,120.27321530580095,19.244007897377013
22.90266964880656,120.27317702437328,19.201262813806533
22.90272237833019,120.27314282589107,19.077008458971974
22.902767631585032,120.27311774134989,18.980206871032713
22.902806185396063,120.27310412391228,18.772411201894283
22.902834070324378,120.27309589647982,18.650225591659545
22.90285200452791,120.27309540078593,18.538293173909185
22.90286608199615,120.27310370734324,18.43859950304031
22.90288003356833,120.27311606493747,18.343544909358023
22.902893361251724,120.273127308216,18.25775623619556
22.9029048147351,120.27313268244791,18.23894301652908
22.90292072970915,120.27313355494154,18.203127187490463
22.902948035961174,120.27312912953548,18.169513452053067
22.90298735318633,120.27312063581948,18.09431073218584
22.903024119290823,120.27311002952182,18.047226300835607
22.903039878401888,120.27310397719516,18.025198024511337
22.903028628134493,120.27311206339235,17.902663749456405
22.903001325202425,120.27312753959153,17.84929845780134
22.90298020611695,120.27314319038253,17.808930411934853
22.902976199634367,120.27314611551945,17.969088679552076
22.90298883764151,120.27314138881839,18.073233026266095
22.90300596710626,120.27313149035194,18.157693102955818
22.903017694136167,120.27312049013668,18.233065873384476
22.903023137022,120.27311239463067,18.30190821290016
22.903025962038665,120.27310803624802,18.364516180753707
22.9030292551685,120.273106113928,18.42064265310764
22.903033812675673,120.27310519814841,18.470195876061915
22.90303904963714,120.27310466196123,18.51463045477867
22.90304421303547,120.27310460502237,18.55372740328312
22.903048898360776,120.27310526362034,18.586007648706435
22.90305313566736,120.27310657611018,18.614006045460698
22.903056985238546,120.27310840037745,18.637217335402966
22.903060478177046,120.2731105985484,18.655128920078276
22.903063615968094,120.27311309258421,18.66772611886263
22.903066327058003,120.27311588326063,18.67547259479761
22.90306854260146,120.27311899048813,18.67908647507429
22.903070195500494,120.27312244276203,18.679742209613323
22.90307122145289,120.27312625425238,18.67864727973938
22.90307156157319,120.27313044404222,18.677525435388088
22.90307120039741,120.2731350121833,18.678384251892567
22.903070172785036,120.27313989501371,18.68255721926689
22.903068532903706,120.27314496298592,18.69060464799404
22.90306633579472,120.27315005691935,18.702225585281848
22.903063620249085,120.27315503625104,18.717215725779532
22.903060412302217,120.27315979434347,18.73522395789623
22.903056722962376,120.27316426303547,18.755753587186334
22.903052543318108,120.27316840633301,18.778285898268223
22.90304785869174,120.27317218715602,18.80250403434038
22.90304267668421,120.27317556185653,18.82807278782129
22.90303699301452,120.27317849526796,18.855037423968312
22.9030308044501,120.27318096841067,18.883314752578734
22.903024096400628,120.27318295677149,18.913189822435378
22.90301689053316,120.27318441727134,18.944975820183753
22.903009214630444,120.27318530952033,18.979348054528234
22.903001085117506,120.27318565389442,19.016518171131608
22.90299247220215,120.27318554544684,19.05651430785656
22.902983316212612,120.27318514242728,19.099090564250943
22.902973553632982,120.27318460887759,19.144016943871975
22.90296314235229,120.27318405329706,19.19105978012085
22.902952063237137,120.27318352072996,19.239776207506655
22.90294031654962,120.27318299271383,19.289877507090566
22.90292790019293,120.27318245249283,19.34072874188423
22.902914827184766,120.27318186298687,19.391650933027265
22.902901114037526,120.2731811901154,19.441617660224438
22.90288678800976,120.27318036126971,19.49024478048086
22.902871862643366,120.273179292774,19.53845105618238
22.902856291721132,120.27317799424738,19.58639919757843
22.902840054187575,120.2731764317644,19.634469677507877
22.902823136107635,120.27317460408389,19.681735169887542
22.902805596323084,120.27317238269265,19.72918049991131
22.902787444400623,120.27316975859213,19.77672003060579
22.902768691697982,120.27316672288728,19.82426323145628
22.902749354902287,120.27316326813104,19.871708561480045
22.902729453583778,120.2731593883244,19.918936128914353
22.90270901386523,120.2731550778821,19.96581747829914
22.902688066368828,120.273150332822,20.012205803394316
22.902666648444033,120.2731451504032,20.05791637301445
22.90264480525965,120.27313952876393,20.10274977535009
22.902622589235975,120.27313346774906,20.14647234380245
22.902600061267904,120.27312696797917,20.188810040056705
22.902576217550614,120.27311873609916,20.279829908907413
22.90255171076037,120.27311106290264,20.36380552500486
22.902526213401423,120.27310426995709,20.444655391573903
22.902500076121814,120.27309920405351,20.488753539323806
22.902474054603676,120.27309407107481,20.539235311746594
22.9024505265002,120.27308838298102,20.589320707321164
22.902432788523278,120.27308413345966,20.555751013755795
22.902417327290497,120.27307820514697,20.53175308704376
22.90239963548711,120.27307127282792,20.508894132077693
22.902375881583247,120.27306161737302,20.59425584375858
22.902352112958017,120.27305327440794,20.648493409156796
22.902335673387935,120.27304443905878,20.68618346452713
22.90232979030274,120.27303340062569,20.67784976363182
22.902328184232495,120.27301979360877,20.66607590317726
22.902321157380307,120.27300692855535,20.650384762883185
22.90230662267611,120.27300239723577,20.502783322334288
22.90228757694406,120.2730005525667,20.405883863568302
22.90227369150881,120.2729983008184,20.31406390070915
22.902270618074585,120.27299049691074,20.298705521225926
22.90227565721499,120.27297962885464,20.250954344868656
22.90227864046448,120.27296807541188,20.204451021552085
22.902271166674733,120.27295577853174,20.27062393426895
22.902263860477017,120.27294812297023,20.292153069376944
22.902273397922436,120.2729419068086,20.302225200831888
22.902306795226224,120.27293239470929,20.256210008263587
22.902353806089625,120.2729141857293,20.2151874512434
22.90240001326265,120.27288742839579,20.170531439781186
22.902439431702643,120.27285542252511,20.136759887635705
22.90247051937948,120.27282544625842,20.113093498349187
22.902490940663558,120.27280401539748,20.110307849943638
22.902502356884845,120.27279923147312,19.987029756605622
22.902510076209033,120.27280282242235,19.95579305887222
22.902525418709864,120.2728099899439,19.931273970007894
22.902554570854946,120.27281493385041,19.949063216149806
22.902590906064674,120.27281671858111,19.943392825126647
22.90262046285069,120.2728176993672,19.938628962635992
22.902634280357987,120.27282048365673,20.04316234588623
22.902642640170722,120.27283218223926,20.094769632816313
22.90266080917346,120.27284637591778,20.147402116656302
22.9026929879349,120.27285465664315,20.0947402715683
22.902722651134102,120.27284918885775,20.102750998735427
22.90273221154616,120.27283925289751,20.120552478730676
22.902719960706523,120.27283567862655,20.30250535607338
22.902707069727814,120.27285226991718,20.400107038021087
22.902710459747812,120.27288030527208,20.479472938179967
22.902727027703914,120.27291020456012,20.363324734568593
22.902735589509494,120.27292961308311,20.31794937252998
22.902728394082395,120.27294697255704,20.259522935748098
22.902719295493075,120.27296620961701,20.290322884917256
22.902726846897608,120.27298525051975,20.26526183634996
22.90274939736272,120.2729940175009,20.23753870129585
22.902768151506915,120.27299322397697,20.19770038127899
22.902771241114987,120.27299413975656,20.16293177008629
22.902767053738728,120.27300390821001,20.124800072610377
22.902772431186566,120.27301756914044,20.061163237690923
22.90279057153288,120.27302383414744,20.00244685858488
22.90280844082262,120.27302102503442,19.944047336280345
22.902813115838608,120.27301690402629,19.90404630601406
22.902807560205474,120.27302046686812,19.857824361324308
22.902805000479148,120.27303145583525,19.80634675323963
22.90281208595469,120.27304341431446,19.7535796970129
22.902820760070732,120.2730500940546,19.70288994908333
22.902818477036156,120.27305051279569,19.666915079951284
22.90280396876052,120.27304646377566,19.60828066766262
22.902789796935764,120.27303458447301,19.5741408765316
22.90278994227101,120.27301051205754,19.541099685430524
22.902804345837122,120.27297180045963,19.541273406147955
22.90281644819629,120.27292831848686,19.523365491628645
22.90280833283683,120.27289317712611,19.50902374535799
22.902777950999166,120.2728767418614,19.497904396057127
22.902743069141913,120.27287748589353,19.50910571217537
22.90272534680371,120.27288546165208,19.53015895038843
22.902732215433996,120.27288978822966,19.52511615604162
22.90274965024692,120.27288503143014,19.529493428766727
22.902758101838845,120.27287685284304,19.535538175702094
22.902749995521884,120.27287419517911,19.578972025215624
22.90273520133726,120.27288248379111,19.613573032617566
22.902727697285723,120.27289597178462,19.651282662153243
22.902731499110764,120.27290536242987,19.69477890431881
22.902737789807382,120.27291075995964,19.72930650860071
22.902734367112068,120.27292124547556,19.75271476358175
22.902719375914533,120.27294676155745,19.705068798363207
22.90270356158743,120.27298066370935,19.66914408802986
22.9027024165973,120.27301072104022,19.624864879250524
22.90272004588949,120.27302640061093,19.611956940591334
22.902744182723556,120.27303030785268,19.576591317355632
22.902757976991193,120.27303195111541,19.537860161066053
22.90275687074839,120.27304052863651,19.507673127949236
22.90275175505252,120.27305854950106,19.478247040510176
22.902754870958102,120.27307938095252,19.45038810968399
22.90276771908323,120.27309567120673,19.410811594128607
22.90278225885472,120.27310506482563,19.378949746489525
22.902791718445087,120.27311163435985,19.350667524337766
22.902796975107847,120.27311966185987,19.314633932709693
22.90280239296299,120.2731296342796,19.281964650750158
22.90281031921626,120.2731403956723,19.251223424077033
22.902819223413683,120.27315105833995,19.233396252989767
22.90282699874021,120.27316181280275,19.21780787706375
22.90283317577217,120.27317248927847,19.207445803284642
22.902838984901077,120.27318283637761,19.192655074596402
22.90284517390233,120.27319266792409,19.184980778396127
22.90285155117979,120.27320282858855,19.181708222627638
22.902858277751097,120.27321520293864,19.141409909725187
22.90286407473597,120.27322799587469,19.111412501335142
22.902868675751982,120.27324117336781,19.08602847903967
22.902871497273964,120.27325321658302,19.128214475512504
22.902874544290547,120.27326675422347,19.16079078018665
22.902878310251378,120.273281084819,19.18885401636362
22.902881922271295,120.27329534249556,19.216042532026766
22.902884848197015,120.27330950977328,19.24291663765907
22.902887132236312,120.27332360258055,19.269398036599156
22.90288904103372,120.27333747538972,19.29526529610157
22.902890740237343,120.27335092340708,19.320416875183582
22.90289226112462,120.27336378719346,19.34500692039728
22.902893572243382,120.2733759991049,19.36916755735874
22.90289466136222,120.2733875565556,19.392936711013316
22.90289553022849,120.27339847578428,19.416182255744932
22.902896190986215,120.27340877680484,19.438807544112205
22.902896651673178,120.2734184785452,19.460838267207144
22.90289691639563,120.27342760582884,19.48251420855522
22.902896981047316,120.2734361906677,19.504092279076573
22.90289683130003,120.27344426988329,19.525774337351322
22.902896448806665,120.27345189250198,19.547568947076797
22.902895811375966,120.27345910237858,19.569490788877008
22.90289489812719,120.27346594703971,19.591509278118608
22.902893682413353,120.27347246578924,19.613654999434946
22.902892133306487,120.27347871204934,19.635663701593874
22.9028902100935,120.27348474756843,19.656932255625723
22.902887864809834,120.27349063497408,19.67654556930065
22.902885051762464,120.27349641346672,19.693677857518196
22.902881744129683,120.27350206722136,19.70807098597288
22.902877960345958,120.27350753635136,19.719734741747377
22.902873749074782,120.27351270180745,19.729379911720752
22.902869184665608,120.2735174238541,19.737697708606717
22.902864353437167,120.27352153110589,19.74573045670986
22.9028593475618,120.27352486872631,19.75392958521843
22.902854245145736,120.27352729625589,19.762451687455176
22.902849098871368,120.27352869216297,19.771178095042703
22.902843944209753,120.27352894587963,19.779975458979607
22.90283880239111,120.27352795873254,19.7889453202486
22.90283368922889,120.27352566276741,19.798218581080434
22.902828616779757,120.2735220286098,19.808020344376562
22.902823594828835,120.27351707291214,19.818311461806296
22.902818632549675,120.27351085566448,19.82863561064005
22.902813743484185,120.2735034610598,19.838705295324324
22.902808946023146,120.27349499790772,19.848461793363093
22.90280426379937,120.27348558815355,19.858305151760575
22.902799716514156,120.27347535550099,19.868467813730238
22.90279531631153,120.27346440803561,19.879032969474792
22.902791065856192,120.2734528363114,19.889700889587402
