Latitude,Longitude,Altitude (m)
22.903763227874084,120.2731101101935,10.186623137533664
22.90376810203981,120.2731105046457,10.13012850666046
22.903772952586078,120.27311089775789,10.073824947059153
22.903777778143645,120.27311128959097,10.017725931704044
22.903782575631716,120.27311167947495,9.961846158385276
22.903787343167576,120.2731120674707,9.906203999340534
22.903792077156965,120.27311245363917,9.850819051623343
22.90379677605948,120.27311283694488,9.795713361918926
22.9038014376501,120.2731132178751,9.740905302464961
22.903806059190337,120.27311359624711,9.686413245499134
22.903810638284014,120.27311397126907,9.63227026104927
22.903815174246514,120.2731143436719,9.578497170984745
22.903819663654723,120.27311471278563,9.525113572359084
22.903824104454774,120.27311507867111,9.472148860752583
22.903828495277427,120.2731154408411,9.419625082850455
22.90383283338419,120.2731157994783,9.367567959785461
22.903837117748136,120.27311615440001,9.316000763058662
22.903841345801926,120.2731165054235,9.264947988986968
22.90384551668979,120.27311685236603,9.214424335360526
22.90384962767323,120.27311719504486,9.164459197759628
22.903853677896482,120.27311753358183,9.115068498790263
22.90385766496336,120.27311786712417,9.066265711426734
22.903861587675777,120.27311819646376,9.018071657538414
22.903865445006804,120.2731185207478,8.970493686020374
22.903869233704484,120.27311884003726,8.923545269846915
22.903872953597656,120.27311915421028,8.877238657176495
22.903876603317087,120.2731194628405,8.831573848009109
22.90388018063775,120.27311976623248,8.786558191239834
22.903883684703864,120.27312006383802,8.742191686868667
22.903887113632727,120.27312035565713,8.698473110079766
22.903890466568555,120.27312064132434,8.655400011241435
22.9038937417998,120.27312092090057,8.612960142195224
22.903896938470673,120.27312119414216,8.571152278125286
22.903900054698475,120.27312146062276,8.529964170873164
22.903903089627427,120.27312172052511,8.489381122648716
22.903906041374814,120.27312197336191,8.449387210845947
22.903908909598325,120.27312221925499,8.409964063227177
22.90391169155948,120.27312245765616,8.371093307554721
22.9039143882852,120.27312268868722,8.332759021222591
22.903916996694697,120.2731229123482,8.294929359018802
22.903919516274502,120.27312312778635,8.257589623153208
22.903921946168833,120.27312333530622,8.220711642861366
22.903924284152673,120.27312353460326,8.184264797747135
22.903926530739486,120.27312372573837,8.148230715572833
22.903928683190788,120.27312390791975,8.112572651863097
22.903930741506574,120.2731240813301,8.077269784748554
22.903932703632986,120.27312424609126,8.042282920122146
22.903934569227705,120.27312440141138,8.007596135377883
22.903936337434953,120.27312454729048,7.973172686040401
22.903938006029716,120.27312468403309,7.9389831765294065
22.903939575183145,120.27312481048195,7.905000660896301
22.903941042670223,120.27312492748977,7.871190844297408
22.90394240814863,120.2731250339602,7.837526780784129
22.903943670591442,120.27312513031958,7.803982749223708
22.90394482897172,120.27312521620247,7.770531803667545
22.903945882262537,120.27312529124342,7.73714087408781
22.90394682892349,120.27312535525968,7.703784239351749
22.903947668441116,120.27312540849489,7.67043250387907
22.90394839927501,120.27312545009632,7.637068520247936
22.90394902159633,120.27312548018578,7.60366166806221
22.903949533351213,120.27312549870237,7.570186226189136
22.90394993351272,120.27312550558518,7.536618923127651
22.903950221738548,120.2731255000424,7.502941386640072
22.903950396659447,120.27312548219581,7.4691303452253335
22.903950457248484,120.2731254519236,7.435160077750682
22.90395040247873,120.27312540910398,7.401014661610126
22.903950232007876,120.27312535318873,7.366672050118446
22.903949944295515,120.27312528411697,7.332118770301341
22.903949538485875,120.27312520182775,7.297335225105285
22.903949013894334,120.27312510613838,7.262300592660903
22.9039483693228,120.27312499656155,7.227003849625587
22.903947603744342,120.2731248732191,7.191429073393344
22.90394671681665,120.27312473556283,7.155562790989875
22.903945706314705,120.27312458359275,7.119386630177497
22.903944572923127,120.27312441724794,7.082893242061138
22.903943314588044,120.27312423610203,7.046072828114032
22.903941930624846,120.27312403985049,7.008905791282653
22.90394042069121,120.2731238285542,6.971392131567001
22.903938783246744,120.27312360184774,6.933512251913547
22.90393701709336,120.27312335942652,6.895266152322292
22.903935122573365,120.27312310122966,6.856640359818935
22.903933097632898,120.27312282689168,6.817626300692558
22.903930942100796,120.2731225364735,6.778220300495624
22.90392865443667,120.27312222979239,6.738411335885524
22.903926234469353,120.27312190575198,6.6982006316781035
22.903923681000766,120.27312156514408,6.657577164530753
22.903920993175127,120.27312120717687,6.616536035180092
22.90391816979435,120.27312083227673,6.57507111954689
22.903915210858433,120.27312043946908,6.5331836424469945
22.90391211465582,120.27312002869303,6.490871154248714
22.90390888101536,120.27311959994859,6.448120181977749
22.903905508738962,120.27311915299208,6.404933175265788
22.903901996799693,120.27311868727534,6.361313808560371
22.903898344855243,120.27311820285928,6.317251058518886
22.903894552392146,120.27311769937845,6.2727437003254884
22.903890617869997,120.27311717683281,6.227794183611869
22.903886540433028,120.2731166345524,6.182403733193874
22.90388232025239,120.27311607253718,6.136561325728893
22.90387795544537,120.27311549072627,6.0902694108486175
22.903873446525438,120.27311488844964,6.043532887816429
22.903868791781036,120.2731142657073,5.9963456325531
22.90386399035639,120.27311362213379,5.948708869874477
22.903859042251497,120.2731129576073,5.900618925333022
22.903853946610585,120.27311227170145,5.852081923007964
22.903848702749027,120.27311156453806,5.803092351227998
22.90384330963989,120.2731108353862,5.753655721664428
22.903837766598556,120.27311008412408,5.703764073014259
22.90383207396733,120.27310931066032,5.653422916948795
22.90382622986351,120.27310851438581,5.602632253468037
22.903820234971707,120.27310769545284,5.551387183308601
22.90381408758038,120.27310685346548,5.499695055365562
22.903807787004894,120.27310598796693,5.447552195191383
22.903801334785655,120.2731050988658,5.394958602786064
22.90379472801302,120.2731041857053,5.341916727781295
22.903787967371606,120.27310324854629,5.288426570177078
22.903781052005645,120.2731022867188,5.234483230710029
22.903773981915126,120.27310130013146,5.180094058275222
22.903766756415436,120.27310028857107,5.125252622589469
22.90375937482195,120.27309925182448,5.069963210508227
22.903751837476975,120.27309818943482,5.014223678603768
22.903744143695892,120.27309710134121,4.9580349454879755
22.90373629313639,120.2730959870259,4.901395480141043
22.90372828631194,120.27309484651936,4.844305588766932
22.903720120997512,120.27309367924293,4.786765883773565
22.903711799075825,120.27309248498345,4.728770547285675
22.90370331951994,120.27309126383227,4.670322028934955
22.903694682843327,120.27309001508891,4.611422472149133
22.903685888190203,120.27308873884476,4.552067283868789
22.90367693573173,120.27308743449072,4.4922537082582705
22.90366782546791,120.27308610211814,4.431986032173037
22.9036585579122,120.27308474157476,4.37125568190217
22.903649132379986,120.27308335206874,4.310063882261514
22.903639549555884,120.2730819340569,4.248410633251071
22.90362980978221,120.27308048702153,4.1862907294034954
22.903619913230116,120.27307901081033,4.123702945902943
22.903609859043826,120.27307750499695,4.060642689689994
22.90359964876374,120.27307596976411,3.997110266968608
22.903589282218704,120.27307440498998,3.9331013908833263
22.90357876026449,120.27307281018732,3.868612386986613
22.90356808255879,120.27307118566063,3.8036383560150857
22.90355725012854,120.27306953086173,3.738176848337054
22.90354626331605,120.27306784591248,3.6722229646891353
22.903535122805934,120.27306613111739,3.605772724419832
22.90352382894051,120.27306438598919,3.538821840673685
22.903512382404404,120.2730626106497,3.4713666390031572
22.90350078388223,120.2730608054644,3.403398545697331
22.903489034229768,120.27305897012872,3.334914192512631
22.90347713361817,120.27305710488629,3.2659074553698297
22.903465083245536,120.27305520967622,3.1963737412095066
22.903452884138787,120.27305328535122,3.1263029453009366
22.90344053612677,120.27305133154587,3.055691699400544
22.903428040749887,120.27304934880834,2.9845329608172175
22.90341539783698,120.27304733780863,2.9128178496360775
22.903402609099608,120.27304529860767,2.8405408541858193
22.903389675393544,120.27304323181454,2.767693706959486
22.903376596205323,120.27304113816017,2.694266609430313
22.903363373075344,120.2730390186191,2.6202552747428416
22.90335000668823,120.27303687340454,2.5456495981663463
22.903336497215136,120.2730347035824,2.4704431494176387
22.903322845340682,120.27303251034041,2.3946242927461863
22.90330905140718,120.27303029474452,2.3181888943985105
22.903295116099255,120.27302805795199,2.241128380663693
22.90328103873228,120.27302580154648,2.1634334123209116
22.903266819990883,120.27302352680712,2.08510016182065
22.903252459532748,120.27302123559163,2.006117146514356
22.903237958555966,120.27301892994052,1.9264855912178753
22.903223314407626,120.2730166116506,1.8461975346282122
22.90320852768677,120.27301428297557,1.7652561918869614
22.90319359796551,120.2730119466868,1.6836542140990494
22.903178523874608,120.27300960512932,1.6013977253437042
22.903163304044813,120.27300726159227,1.5184979020655154
22.903147937192465,120.27300491945614,1.4349639303833246
22.903132422205047,120.27300258185781,1.350812651515007
22.9031167562585,120.27300025290867,1.2660762934274972
22.90310093772684,120.27299793659833,1.1807853234149515
22.903084963443696,120.27299563813457,1.0949934802725911
22.90306883126962,120.27299336187247,1.0087650668323038
22.903052537952664,120.27299111381161,0.9221938580572605
22.903036079984137,120.27298889946437,0.8353937618210912
22.90301945308515,120.27298672550035,0.7485231621228158
22.903002654174912,120.27298459880238,0.661785454943776
22.90298567846106,120.27298252738011,0.5754476884137839
22.90296852149356,120.27298051875589,0.4898670877292752
22.90295117762427,120.27297858270575,0.4055119918491691
22.902933641889696,120.27297672867074,0.3230081668440252
22.902915908984006,120.27297496691415,0.2431920088343322
22.902897972060988,120.27297330855204,0.1671939845699817
22.90287982538693,120.27297176591865,0.09655598409846425
22.90286146185888,120.27297035134823,0.03339659435302019
22.90284287463062,120.27296907821048,-0.019327900245785713
22.90282405634246,120.27296796014923,-0.05744761415198445
22.902804999891455,120.27296701080826,-0.07498376191779971
22.90278569689098,120.2729662439532,-0.06321856366097926
22.90276614100829,120.27296567283197,-0.009203955221921205
22.90274632488369,120.27296530910878,0.10670113374665378
22.902730169689203,120.27289015554767,3.080447983473539
22.90269066640566,120.27284860884563,6.453913560926914
22.902668128652216,120.27285292095867,9.216050890803336
22.902644945984928,120.27284483829732,12.856485291242599
22.90259826948969,120.27286321505882,15.799323377251625
22.902551552173872,120.27290401278285,17.76841816830635
22.90250105172293,120.27294897186803,18.26242314326763
22.902450596756555,120.27295267138022,18.756989083886147
22.902390616645476,120.27291926500594,19.625942034363746
22.902333390126525,120.27290484755238,19.149907557487488
22.90232538231793,120.27285842742255,19.650379560112953
22.902349393163792,120.2727998452549,20.275623552918432
22.902425375199623,120.27281371595114,19.694201021432875
22.90256528705873,120.27286880746651,19.685425215899944
22.902714508620587,120.27291426643886,19.68799732917547
22.902847347693477,120.27294189258993,19.584626546263692
22.90295163803251,120.27296404687391,19.478633432626722
22.90301615782872,120.27297691033438,19.38404580414295
22.90303058991542,120.27297706848681,19.11839304578304
22.903000621960334,120.27296451064153,18.987467580795286
22.902948561683935,120.27294923085672,18.877145967960356
22.902891689970293,120.27293768612503,18.576926456809044
22.902826070072244,120.27290127083445,18.40008999466896
22.90273616209925,120.27282704951386,18.236312519073486
22.902638504976373,120.2727160525448,18.48710458678007
22.90256408486265,120.27262489881615,18.519287847936152
22.9025602314682,120.27260703362509,18.579726385831833
22.902624263043407,120.27268786701286,18.515084279954433
22.90270564944185,120.27281166612141,18.501823198795318
22.902748183632188,120.27290517871926,18.43004899024963
22.9027571747718,120.27297577750248,18.24187195819616
22.90276315973658,120.27304242064758,18.076481400132177
22.9027652252409,120.27308796041685,17.919671901881692
22.90275710391343,120.27309814396561,18.064747664332387
22.902743968415056,120.27310269536301,18.092239880800246
22.902744490268113,120.27310186540535,18.197184552073477
22.902746795561256,120.27309300819908,18.123688252449035
22.902740813163806,120.27307438354973,18.24190747785568
22.902723498904418,120.27306290618432,18.347553968608377
22.902706850011956,120.27307111753295,18.21317574775219
22.902703683635597,120.27308208209831,18.181645313441752
22.90270978558515,120.27309966808241,18.115077797055243
22.902733201879666,120.27312360239593,18.43602609157562
22.902764792902158,120.2731732083547,18.517224033236502
22.902810514264246,120.27323523413703,18.644384414315223
22.902858610237445,120.27329932823525,18.776106009602547
22.90290577486811,120.27336114814229,18.989079438447952
22.90294663652711,120.27341854964858,19.236911126255986
22.902974136762506,120.27346766382121,19.284171870470047
22.90298458743046,120.27348613187134,19.37799398905039
22.902972203561372,120.27347508897591,19.444404729008674
22.90294902525855,120.27346210652804,18.891356281399727
22.902945640744534,120.27343380135393,18.57265062469244
22.90295481972728,120.2733983417085,18.263792487382887
22.902966836895757,120.27335714703496,18.610038128376004
22.902965156148955,120.27333962266117,18.636016472458838
22.902961382598537,120.2733349116495,18.6174531635046
22.90295128451087,120.27333034389781,18.61979378658533
22.90293777828973,120.2733304019449,18.613011981248853
22.902926514205358,120.27333615871783,18.60691117352247
22.902917388879853,120.2733446431558,18.605077624201773
22.902908365819744,120.27335497785236,18.59831174147129
22.902899964481914,120.27336641501726,18.591890031993387
22.902893413505964,120.27337790949834,18.585061683654786
22.902889837640124,120.27338675019803,18.577232660770417
22.902889250234523,120.27339028248221,18.56845440560579
22.902890105755183,120.27338810556408,18.55902454841137
22.902891093065563,120.2733829295666,18.546963786780832
22.90289240403095,120.27337812591104,18.533521432876586
22.902894429912777,120.27337487472582,18.518879984259605
22.902896922706745,120.27337269817313,18.500161123692987
22.902899361843474,120.27337094427392,18.476906770050526
22.902901387126256,120.27336919396839,18.447818618535994
22.902902945069002,120.2733672714707,18.41791229003668
22.902904384400998,120.27336509138524,18.386449220597743
22.90290611486847,120.27336271888556,18.355021670818328
22.9029083206347,120.27336002283275,18.322812688529492
22.902910860924315,120.27335668643464,18.290983399152754
22.902913505961084,120.27335243754604,18.259912270784376
22.902915961614315,120.27334729620625,18.229070182979104
22.902917980821076,120.27334169164705,18.198186451435088
22.902919456865927,120.27333622364773,18.166153842628002
22.902920404896122,120.27333135938689,18.135818828582764
22.90292100359799,120.2733272868323,18.106793142676352
22.902921319722157,120.27332384761836,18.08069231700897
22.902921275221733,120.27332078208637,18.055899594664574
22.902920527357868,120.27331788095007,18.03457800042629
22.902918984562383,120.27331508622329,18.018374911606312
22.902916733953415,120.27331212673536,18.0058462703228
22.902914002568707,120.27330848115885,17.99751997220516
22.902911160360826,120.27330368529975,17.9916163598299
22.902908657383104,120.27329759151262,17.99116562759876
22.90290688780661,120.27329051902595,17.993919013619422
22.9029057145358,120.27328286028195,17.999091410934923
22.90290488408942,120.27327507990098,18.005302452087403
22.90290420109348,120.27326758116716,18.012144273400306
22.90290359314922,120.27326067277166,18.01932904314995
22.902903008139795,120.27325449955805,18.024872559666633
22.902902367248103,120.27324897637442,18.028777272582055
22.902901664997174,120.27324394089597,18.03160169792175
22.902900975668484,120.27323920710401,18.03030216830969
22.902900278038754,120.27323447587028,18.02601898729801
22.90289956158192,120.27322966326098,18.018481470584867
22.902898739607732,120.27322471031538,18.011954426944254
22.902897866372477,120.27321971991022,18.00584014624357
22.90289694076365,120.27321468351812,18.000099434375763
22.902895961240844,120.27320959242897,17.994709019839764
22.902894926263663,120.27320443768903,17.989646855950355
22.902893833692666,120.27319921095365,17.984887221574784
22.902892682586494,120.27319390491363,17.98040929484367
22.902891471575902,120.27318851244253,17.97620082759857
22.902890198093562,120.27318302641389,17.972234873890876
22.902888859315407,120.27317744122402,17.968510208904743
22.90288745335873,120.27317175096465,17.96501580929756
22.90288597731388,120.27316595003208,17.96174065172672
22.902884427928907,120.2731600334926,17.95868351137638
22.902882801951858,120.27315399720436,17.95583458971977
22.90288109613078,120.27314783629456,17.95317918896675
22.90287930635794,120.27314154759588,17.95072710764408
22.902877428782336,120.27313512684465,17.94846242314577
22.902875459980866,120.27312857038626,17.946372887313366
22.902873395417902,120.2731218749925,17.94445115125179
22.90287123167034,120.27311503749605,17.942684966802595
22.902868964630446,120.27310805546051,17.94105228728056
22.902866590703955,120.27310092513996,17.939543314158914
22.90286410638218,120.2730936450116,17.938138450384137
22.90286150875548,120.27308621230407,17.9368180989027
22.902858795769987,120.27307862537279,17.935565112292764
22.902855965286257,120.27307088309092,17.934370916843413
22.902853017133133,120.27306298506258,17.933209791421888
22.902849951652932,120.2730549313791,17.932070712685583
22.902846770985093,120.27304672450732,17.93093653321266
22.90284347872388,120.2730383675537,17.929806028187272
22.902840080859736,120.27302986636552,17.928663275003434
22.90283658706295,120.27302123120613,17.92750704884529
22.9028330085442,120.27301247416611,17.926332450449465
22.902829361306523,120.27300361458437,17.925140704631804
22.902825666145315,120.27299467856075,17.923934261023998
22.90282194856274,120.272985701423,17.922721693336964
22.90281823945236,120.27297673068077,17.921510350465773
22.902814575869336,120.27296782922349,17.92031370538473
22.902813577348272,120.27292663482405,19.215442554116247
22.902801354707645,120.27288737218058,20.090653088748454
22.902796312723975,120.2728458616133,20.87776996850967
22.902791112079175,120.27281339070777,20.527691878736018
22.9027972975526,120.2727709666602,20.521509008347987
22.90280679394318,120.27273840597353,20.544718043804167
22.902827461223975,120.27274048694343,20.377259996592997
22.90285370586278,120.27276009458646,20.293525461316108
22.902863114878492,120.27277650837567,20.227276397049426
22.90284867936868,120.27278657852551,20.17557814502716
22.90281840025293,120.27279599566083,20.118989203333854
22.902781613891456,120.27280620996906,20.06235371863842
22.902743603169267,120.27281411567206,20.060173546433447
22.90270766188797,120.27281920117272,20.040820231258866
22.902678330802416,120.27282008989316,20.024075773835182
22.902657386677635,120.27281760361387,19.97344923567772
22.902645478192888,120.27281230332984,19.946565752685068
22.902640311608028,120.27280635606135,19.926631874799728
22.902639856847923,120.27280099908546,19.92999521911144
22.90264253526001,120.27279964289713,19.921406810402868
22.902648564297326,120.27280364916658,19.91097627866268
