Latitude,Longitude,Altitude (m)
22.901794861654245,120.27402871020658,20.092874310337006
22.90180228170194,120.27403131019504,20.09463431598991
22.90180979146513,120.27403386029097,20.096422233089804
22.901817391766894,120.27403636108131,20.09824053994566
22.90182508054954,120.27403881227261,20.10008753018081
22.90183285863614,120.27404121445181,20.101962919399142
22.901840723969006,120.27404356703197,20.10386715450883
22.90184867737121,120.27404587030654,20.1058015762344
22.901856717608137,120.27404812456903,20.107765209503473
22.90186484426825,120.27405033011291,20.10975825745612
22.90187305673424,120.27405248605776,20.111780313812197
22.901881353977256,120.27405459240353,20.11383235364407
22.901889736614606,120.27405665032418,20.11591429569572
22.901898202794374,120.27405865923275,20.118025936827063
22.901906751693474,120.27406061927599,20.120166992641984
22.901915384958063,120.27406253045388,20.12233937265724
22.901924100118904,120.27406439261966,20.124540923587976
22.901932896558698,120.27406620606686,20.126773108042777
22.901941774483205,120.27406797064873,20.1290360885337
22.901950732863583,120.27406968665872,20.131328889988364
22.901959770670985,120.27407135365662,20.13365317815542
22.901968888316944,120.27407297252292,20.136008099846542
22.90197808497839,120.27407454267059,20.138394548878072
22.901987359626467,120.27407606424642,20.14081130640954
22.90199671205541,120.27407753710364,20.143260525725783
22.902006140824838,120.27407896197596,20.14574094735831
22.90201564655205,120.27408033812969,20.148253058843313
22.902025228413972,120.27408166571156,20.150796982064843
22.90203488517599,120.2740829454553,20.153374057747424
22.902044616015022,120.27408417662717,20.155982173234225
22.902054421342605,120.27408535996089,20.158623481810093
22.902064300335667,120.27408649486951,20.161297942847014
22.90207425196536,120.27408758193998,20.164005271948874
22.90208427623168,120.27408862087881,20.166745387859642
22.90209437148847,120.2740896119795,20.169519143767655
22.902104538558813,120.27409055494857,20.172327108465133
22.902114775590782,120.2740914500795,20.175169241324067
22.902125082995916,120.27409229766576,20.178045420460403
22.902135459951136,120.27409309712039,20.180956336550413
22.902145905221825,120.27409384932385,20.1839019895941
22.902156418807987,120.27409455412939,20.186882582731545
22.902167000092305,120.27409521109679,20.18989937543124
22.90217764825171,120.2740958211065,20.19295192078501
22.902188362874657,120.27409638327806,20.196040543816984
22.90219914313807,120.2740968983452,20.199165366411208
22.902209988836184,120.27409736704162,20.20232736364007
22.902220898940143,120.27409778804663,20.20552698241174
22.90223187406726,120.27409816238745,20.208764425866306
22.90224291277715,120.27409848977058,20.21203936897963
22.902254013423654,120.27409877034276,20.215353924408554
22.902265177241393,120.27409900498446,20.218707117080687
22.902276402789976,120.27409919222823,20.222099109508097
22.90228768924633,120.27409933398175,20.22553103927523
22.902299036610447,120.27409942877759,20.22900432836264
22.902310444059257,120.27409947778968,20.232518407978116
22.902321912004297,120.27409948145825,20.236073521889747
22.90233343879941,120.27409943904958,20.23967056391388
22.902345024033057,120.27409935071043,20.243310346610844
22.9023566672937,120.27409921717451,20.246992869980634
22.902368367346718,120.27409903829506,20.2507190278396
22.902380124603656,120.27409881451234,20.25448999840021
22.902391938652972,120.2740985453861,20.258305984802544
22.90240380867159,120.27409823194353,20.262166621394456
22.902415734247967,120.27409787359767,20.266074102088808
22.90242771332441,120.27409747122898,20.270028020605444
22.902439747958617,120.2740970242505,20.274029555156826
22.902451836915965,120.27409653339592,20.278079193279147
22.902463977727226,120.27409599910548,20.28217799130082
22.902476172038554,120.27409542123245,20.28632603047788
22.90248841902687,120.27409480007027,20.290523717090487
22.90250071704602,120.27409413605923,20.294772838771344
22.902513067330617,120.27409342934602,20.299074208080768
22.90252546823451,120.27409267978393,20.303427012458442
22.90253791893462,120.27409188795993,20.307833527073264
22.90255042025402,120.27409105446098,20.312293508157133
22.90256297054656,120.27409017928707,20.3168080932945
22.90257556981224,120.27408926229148,20.321379232630132
22.902588217639515,120.27408830450139,20.326005138531325
22.90260091402839,120.27408730606356,20.33068857370317
22.902613657744247,120.27408626697799,20.335428806841374
22.902626448787085,120.27408518753813,20.340227381810546
22.90263928592229,120.27408406803752,20.34508437986672
22.902652170384478,120.27408290920984,20.350001101106404
22.90266510052749,120.27408171164205,20.35497795180976
22.90267807552825,120.27408047460048,20.36001509448886
22.902691096621375,120.27407919940578,20.36511301667988
22.90270416133763,120.27407788576446,20.37027269345522
22.902717270500098,120.274076534557,20.37549428732693
22.902730423285696,120.27407514607687,20.380778529599308
22.902743620105962,120.27407372061757,20.386125501528383
22.90275685972628,120.27407225847257,20.391534390553833
22.902770142558197,120.27407075949513,20.39700730933249
22.902783467367083,120.27406922500596,20.402542713999747
22.90279683374141,120.27406765515175,20.408141498371958
22.90281024209271,120.27406605037278,20.41380366244912
22.902823691186367,120.27406441037554,20.41952928748727
22.902837182257,120.27406273662747,20.42531764218211
22.902850712835374,120.27406102912856,20.431169376581906
22.90286428333303,120.27405928802554,20.43708343435824
22.902877893338427,120.27405751375866,20.443060871839524
22.902891543263102,120.27405570720838,20.449099982649088
22.902905231872445,120.27405386852142,20.45520263567567
22.902918960812606,120.27405199828478,20.46136704328656
22.902932725968196,120.27405009635169,20.467594911858438
22.902946530219985,120.2740481638961,20.47388453501463
22.902960371921825,120.27404620106475,20.480237862899898
22.902974250250633,120.27404420815114,20.48665408295393
22.902988166852566,120.27404218530201,20.493135714113713
22.903002119669928,120.27404013413151,20.499681862562895
22.90301610870272,120.27403805390595,20.506295291006566
22.90303013395094,120.27403594550577,20.512975999444723
22.903044194591512,120.27403380937122,20.51972764439881
22.903058290624436,120.27403164579576,20.526549900844692
22.903072421226636,120.27402945536637,20.533444718927143
22.903086587221186,120.27402723867004,20.54041567391157
22.903100786961932,120.27402499556,20.547464065894484
22.90311502209503,120.27402272691671,20.55459225130081
22.903129288505088,120.27402043303368,20.561802342787384
22.90314358989596,120.27401811479135,20.569097346827387
22.903157923798414,120.27401577086901,20.576477994725106
22.90317229103552,120.27401340420155,20.583947780489922
22.903186689138053,120.27401101376178,20.591506947889922
22.90320112098678,120.27400859954966,20.599157934606076
22.90321558328939,120.2740061628859,20.60690301580727
22.903230076045887,120.2740037037705,20.61474300405383
22.9032446017255,120.27400122279042,20.622679524466395
22.90325915621284,120.27399871950544,20.630712577044964
22.903273741154067,120.27399619523625,20.63884516826272
22.903288356549176,120.2739936505698,20.647076891839504
22.903302999928936,120.27399108447892,20.655408804103732
22.90331767417412,120.27398849857776,20.663841392591596
22.903332376403952,120.27398589242611,20.672375551119448
22.903347107029973,120.27398326661091,20.6810103046149
22.90336186399449,120.2739806218659,20.689746059358118
22.903376650178274,120.27397795789759,20.698584846749903
22.90339146270055,120.27397527543968,20.707523741573095
22.90340630197286,120.27397257434545,20.716564450204373
22.903421168406744,120.27396985490836,20.72570567254722
22.903436059532964,120.27396711815564,20.734947489857674
22.903450976174604,120.27396436379377,20.744288033246992
22.90346591833166,120.27396159167603,20.753728196531533
22.903480884357972,120.27395880326985,20.76326586705446
22.903495875076626,120.27395599798824,20.77290071979165
22.903510888018385,120.27395317553773,20.782632998511193
22.90352592565248,120.27395033709226,20.79245969673991
22.9035409867443,120.27394748279856,20.802380245685576
22.903556069236142,120.27394461250991,20.812393263995645
22.903571173128014,120.27394172637304,20.8224979391098
22.903586299654528,120.2739388252684,20.83269232088327
22.903601446346453,120.27393590875576,20.842976084291934
22.90361661238071,120.2739329766884,20.853346954166888
22.903631799814992,120.27393002980003,20.863802817851305
22.903647006180066,120.2739270686776,20.87434278152883
22.903662231475934,120.27392409273413,20.884965626358984
22.903677475702597,120.2739211024099,20.89566923968494
22.903692737213895,120.27391809829183,20.906450940057635
22.903708017244448,120.273915079206,20.917309589892625
22.903723315382713,120.27391204676658,20.928243482813237
22.903738627101767,120.27390900053334,20.93924879978597
22.903753956928533,120.27390594035954,20.950324890762566
22.903769301982244,120.27390286653866,20.961467855453492
22.903784663085972,120.27389977921744,20.97267566245794
22.90380003694741,120.27389667956983,20.983943598926068
22.903815424801174,120.27389356598165,20.995269714713096
22.9038308270588,120.27389043889315,21.006649296969176
22.903846243308752,120.2738872993315,21.01807893294096
22.903861671493335,120.27388414641626,21.029554072290658
22.90387711078947,120.27388098088115,21.041068702071904
22.90389256243177,120.27387780316639,21.05261762189865
22.90390802559717,120.27387461253825,21.064196931481362
22.903923498639497,120.27387140958373,21.07579818019271
22.903938982381842,120.27386819371584,21.08741714271903
22.903954475589583,120.27386496493459,21.099045205920934
22.90396997785118,120.27386172529438,21.110674731731415
22.903985489166633,120.27385847200709,21.122298244595527
22.90400100788979,120.27385520771408,21.13390826895833
22.904016535666806,120.27385193094794,21.14549570414424
22.904032068382286,120.27384864185541,21.157050311893222
22.904047609328547,120.27384534072998,21.168564616650343
22.904063156036354,120.27384202801186,21.18002919271588
22.904078709328786,120.27383870370106,21.191431364148855
22.90409426755968,120.27383536765085,21.202763330370185
22.90410983031751,120.2738320198612,21.21401322799921
22.904125397602265,120.27382866047888,21.225171468824147
22.904140969413948,120.27382528979737,21.236226026952266
22.904156544106407,120.27382190752317,21.24716601407528
22.904172122914254,120.27381851365631,21.257981354445217
22.904187703368255,120.27381510878372,21.268658072024582
22.90420328587995,120.27381169261196,21.279187716186048
22.904218870037806,120.27380826543447,21.28955614838004
22.904234455841813,120.27380482681106,21.299753942906857
22.90425004329198,120.2738013777689,21.309769236385822
22.904265631153685,120.27379791713406,21.31958902785182
22.904281219838467,120.27379444593376,21.329202266484497
22.904296806877092,120.27379096416796,21.338597738951442
22.904312394327256,120.27378747139646,21.34776423192024
22.904327980542806,120.27378396791273,21.356691019594667
22.904343565523735,120.27378045415702,21.36536477598548
22.904359148035432,120.27377692983582,21.37377640041709
22.90437472725482,120.27377339538937,21.381914679557084
22.904390306474205,120.27376985008395,21.389769050121306
22.904405882812817,120.273766295387,21.39732537356019
22.90442145421296,120.27376272997783,21.40457828697562
22.904437022732335,120.2737591547369,21.41151348930597
22.904452587547855,120.27375557010441,21.418123342484236
22.90446814824799,120.27375197490646,21.424395008057356
22.904483702775035,120.27374837017022,21.430322473078967
22.90449925400977,120.2737447558957,21.43589208653569
22.90451480030604,120.2737411320829,21.441097672969104
22.904530340017683,120.27373749873183,21.44592785653472
22.90454587437932,120.2737338559892,21.45037564921379
22.904561401333257,120.27373020400181,21.454431462794542
22.904576923760263,120.27372654335657,21.45808619660139
22.904592437133413,120.27372287317306,21.461331725031137
22.90460794392194,120.27371919491868,21.464162847697732
22.90462344494892,120.27371550712604,21.466570788949728
22.904638936922044,120.2737118111158,21.46854677313566
22.904654420664386,120.27370810644773,21.470087550014256
22.904669895352875,120.27370439268161,21.47118320634961
22.904685361399043,120.2737006717251,21.47183081692457
22.904700817979812,120.27369694211076,21.47202306869626
22.90471626756442,120.27369320427883,21.471756386399267
22.904731707272095,120.2736894582293,21.471023782014846
22.904747135456677,120.27368570410891,21.469824930518865
22.904762554175864,120.27368194309163,21.468153656452895
22.904777962195034,120.27367817429696,21.466008984744548
22.904793360337273,120.27367439801843,21.463385552495716
22.90480874695642,120.27367061410926,21.460283847242593
22.904824122052474,120.27366682315645,21.4567024063766
22.904839485625438,120.27366302442626,21.452641229897736
22.90485483685223,120.27365921967963,21.448098692685367
22.904870176555935,120.2736554077426,21.443075119763613
22.90488550350193,120.27365158920213,21.437572461277245
22.904900819336373,120.27364776391151,21.431595105051993
22.904916119943874,120.27364393231095,21.425140613406896
22.904931407793665,120.27364009396021,21.41821532431245
22.904946681239593,120.27363624973977,21.410820700377226
22.904961941516273,120.27363239906263,21.402962267011404
22.904977188212168,120.27362854266254,21.394645387113094
22.904992419269583,120.27362468039274,21.385874123483894
22.90500763633467,120.27362081210647,21.37665383902192
22.905022838584358,120.27361693839073,21.36699282184243
22.905038023960945,120.27361305939226,21.356896922379732
22.90505319452213,120.27360917467081,21.346371991068125
22.905068348210218,120.27360528422639,21.33542745360732
22.905083486259823,120.2736013890862,21.324072085648773
22.90509860784787,120.27359748925025,21.312312712699175
22.90511371297436,120.27359358332447,21.30015989804268
22.90512879999313,120.27358967314315,21.287621604770422
22.90514386849265,120.27358575870628,21.274709208726883
22.90515891970753,120.27358183964702,21.261428235322235
22.90517395322624,120.27357791552514,21.247795098274946
22.90518896822569,120.27357398729445,21.233814022898674
22.905203963882812,120.27357005495497,21.219499472767115
22.905218939786064,120.27356611821321,21.204862011164426
22.905233895935442,120.27356217728928,21.18990862610936
22.90524883233095,120.27355823196307,21.17465199354291
22.90526374897259,120.27355428304165,21.15910673955083
22.905278645037278,120.27355033059841,21.143277739495037
22.905293518878864,120.27354637345941,21.12718026950955
22.90530837173196,120.27354241353228,21.11082245519757
22.90532320400811,120.27353844898276,21.094215347379446
22.905338012414997,120.2735344827457,21.077373734652994
22.90535279901032,120.27353051188625,21.06030200484395
22.905367563382537,120.27352653772508,21.043015921622516
22.90538230223934,120.27352256011545,21.02552442315221
22.905397018461496,120.27351857971772,21.007834984987973
22.905411710814395,120.27351459638513,20.98996304577589
22.905426378063414,120.27351061011767,20.971913805902002
22.905441020620096,120.27350662018165,20.953700916379688
22.905455639719055,120.27350262826461,20.935331527739763
22.905470230833366,120.273498632679,20.916817178338764
22.905484796843798,120.27349463489223,20.89816534373164
22.905499335692657,120.27349063439074,20.87938707473874
22.905513847379947,120.27348663110112,20.860488221794366
22.90552833190566,120.27348262531689,20.841481135815382
22.905542790092884,120.27347861615756,20.822371342211962
22.9055572186493,120.27347460523733,20.803169891804455
22.905571617574907,120.27347059196921,20.78388263502717
22.905585989338945,120.2734665766467,20.764520297676324
22.90560032982602,120.27346255706864,20.745085154920815
22.905614639036134,120.27345853734383,20.72559085777402
22.905628919438517,120.27345451424395,20.706040331453085
22.90564316856394,120.27345048967663,20.68644170156121
22.9056573864124,120.27344646202772,20.66680276867747
22.905671572160824,120.27344243291138,20.64712905821204
22.90568572663228,120.27343840144717,20.62742674562335
22.90569984488831,120.27343436778179,20.607702656418084
22.9057139310443,120.27343033220878,20.58796264103055
22.90572798427717,120.27342629443461,20.56821189984679
22.905742004586926,120.2734222544593,20.548454333156347
22.90575598785817,120.27341821375029,20.52869969168305
22.905769935737066,120.27341416995968,20.508950575619934
22.905783848223606,120.27341012470163,20.489209585160015
22.90579772449472,120.27340607621524,20.46948582097888
22.90581156208117,120.2734020278756,20.449782858341933
22.905825362629113,120.27339797733482,20.430101997345684
22.905839126138545,120.27339392415266,20.4104497384727
22.90585285260947,120.27338987009006,20.390830957084894
22.9058665379265,120.27338581309259,20.371246953278778
22.905880184558864,120.27338175550815,20.3517052026093
22.90589379168349,120.2733776951356,20.33220668014884
22.90590735600806,120.27337363373584,20.31275431111455
22.905920880001812,120.27336957145565,20.293354270964862
22.90593436448782,120.27336550653406,20.274007859796285
22.90594780452762,120.27336143999833,20.254717312149705
22.90596120094429,120.27335737170166,20.23548855971545
22.905974556207063,120.2733533016441,20.216319286696613
22.905987866200547,120.2733492308528,20.197219893865288
22.906001131747825,120.27334515800712,20.17818583088368
22.906014352848892,120.27334108325378,20.159221973113716
22.90602752621144,120.27333700717975,20.14033287089318
22.90604065595085,120.27333292919806,20.12151787417382
22.906053737128666,120.27332885077615,20.102780558221042
22.906066773037196,120.27332476971287,20.08412352322787
22.90607975956105,120.27332068762239,20.06554611914605
22.906092696700224,120.27331660450471,20.047055171482263
22.9061055852778,120.27331251889241,20.02864710497111
22.906118426116855,120.2733084322529,20.01032711999863
22.906131214278922,120.27330434443945,19.992095866613088
22.906143949763997,120.27330025530532,19.97395464491099
22.906156638333634,120.27329616367656,19.955904429964722
22.906169272580122,120.273292073075,19.937949122063817
22.906181853326547,120.27328797953858,19.920087096087634
22.906194380572906,120.27328388453473,19.902323227398096
22.90620685678843,120.27327978762324,19.884653940729795
22.906219276211576,120.27327569012476,19.867085086517037
22.906231641311578,120.27327159247955,19.849615364663304
22.90624394879612,120.27326749248645,19.83224737536162
22.906256201134443,120.27326339073244,19.81497981851548
22.906268397503467,120.27325928839146,19.7978152943179
22.9062805337878,120.27325518502327,19.78075737803429
22.90629261410283,120.27325108077463,19.763800219230355
22.90630463433317,120.27324697447159,19.746951628642154
22.906316595301902,120.27324286816855,19.730208335714416
22.906328496185942,120.27323875893066,19.713573275821282
22.90634033698529,120.27323465145368,19.697046123938634
22.906352115230717,120.2732305411886,19.68062818016298
22.90636383009914,120.27322643033652,19.664317169325425
22.906375484059794,120.27322231801703,19.6481192668844
22.906387076289604,120.27321820599103,19.632032847719266
22.90639860102702,120.27321409176388,19.616054011540488
22.906410062387437,120.27320997724325,19.60018990887888
22.90642146037085,120.2732058630161,19.584437939541413
22.906432789215717,120.2732017468813,19.56879907860048
22.9064440538605,120.27319763001277,19.55327430112846
22.906455251012897,120.27319351343775,19.537862307028846
22.90646637738059,120.27318939583552,19.52256634654291
22.906477437902044,120.27318527720608,19.50738446952589
22.90648842928495,120.27318115740272,19.492316350953654
22.90649935152931,120.27317703862654,19.477366216139867
22.90651020134281,120.27317291852968,19.46253081484325
22.906520978725453,120.27316879901979,19.447813397305087
22.90653168614647,120.27316467833596,19.43321071328409
22.906542320313548,120.27316055809236,19.418729263262822
22.90655287958053,120.27315643726179,19.40436123650521
