Latitude,Longitude,Altitude (m)
22.90288722053122,120.27308235863926,7.227604179136455
22.902886653539923,120.27308270178924,7.226692493669689
22.9028860775739,120.27308304169117,7.225778797976673
22.90288549258916,120.27308337807055,7.224861895494163
22.902884898585707,120.27308371115615,7.223942504160107
22.902884295651525,120.2730840405362,7.223019714586437
22.902883683962585,120.27308436689695,7.2220941011235125
22.902883063298926,120.27308468982666,7.221164658658207
22.902882433924507,120.2730850095083,7.220232296578587
22.90288179566335,120.27308532621639,7.219295531146229
22.90288114886741,120.27308563963066,7.218355319611728
22.902880493184735,120.2730859497969,7.217411087624729
22.902879828879286,120.27308625708103,7.216462165109814
22.90287915586308,120.27308656120863,7.21550888710469
22.902878474180103,120.2730868624999,7.214550392083824
22.902877783874356,120.27308716086333,7.213587302260101
22.902877084901842,120.2730874563447,7.212618516795337
22.90287637713058,120.27308774917272,7.211644275002182
22.902875660780538,120.27308803953039,7.2106643854305155
22.902874935543764,120.27308832714324,7.20967822586745
22.9028742017722,120.27308861246871,7.208685844175518
22.902873458849943,120.27308889514086,7.207687336079776
22.902872707084942,120.27308917534265,7.206681887917221
22.90287194621324,120.27308945334858,7.205669356100262
22.902871176190835,120.27308972920437,7.204649979941547
22.902870396665787,120.27309000286431,7.203622897915542
22.90286960772608,120.27309027451136,7.202588397197426
22.90286880879979,120.27309054405404,7.20154590343684
22.90286799993092,120.27309081135512,7.200495368771255
22.902867180855498,120.27309107668906,7.199436458162964
22.902866351001613,120.27309133987288,7.198369267337024
22.902865510193287,120.27309160127255,7.197293748430908
22.902864657902594,120.27309186038487,7.196209183506668
22.902863793865574,120.27309211753006,7.195116194777191
22.90286291729034,120.27309237220489,7.194014112167061
22.90286202773695,120.27309262454662,7.192902887813747
22.90286112450151,120.27309287450949,7.191782904617488
22.902860206836124,120.27309312168177,7.190653827540577
22.902859274212865,120.27309336592624,7.189516087345779
22.902858325707868,120.27309360738012,7.188369348995388
22.902857360221287,120.27309384517423,7.187214521877468
22.902856377049222,120.27309407962879,7.186050792329014
22.902855375135825,120.27309431005759,7.184879596225918
22.902854353073298,120.27309453623191,7.18370078998059
22.90285330980579,120.27309475769425,7.182515474431217
22.902852244189457,120.27309497435313,7.181324654690922
22.902851154728523,120.27309518575109,7.180128665797413
22.902850040191158,120.27309539124765,7.178929613702
22.902848898861603,120.27309559075132,7.177728503517807
22.90284772950804,120.27309578380464,7.176527536921204
22.902846530370716,120.27309597045334,7.175328772000968
22.902845299865856,120.27309614991972,7.174135271959007
22.902844036409686,120.2730963220208,7.172950339309872
22.902842738374435,120.27309648689383,7.1717787124440076
22.902841404044352,120.27309664431004,7.170624938301742
22.90284003170368,120.27309679436097,7.169494760386646
22.90283861985663,120.2730969374583,7.168395932428539
22.902837166523486,120.27309707323609,7.167336854301393
22.902835670428427,120.27309720265501,7.166328247211874
22.90283412972372,120.27309732566931,7.165382220380009
22.90283254278159,120.27309744337693,7.164513994090259
22.902830908106257,120.27309755618961,7.1637413014099005
22.902829223937967,120.27309766506801,7.163085273645819
22.90282748873694,120.27309777106434,7.162571828357875
22.90282570087541,120.27309787477333,7.162231382183731
22.902823858461645,120.27309797743011,7.162100717477501
22.90282195982388,120.27309808013264,7.1622228865847
22.902820002938405,120.27309818384161,7.162650059662759
22.902817985605537,120.2730982897007,7.1634440990313895
22.902815905669577,120.27309839862487,7.164678138636053
22.90281376057889,120.27309851184926,7.166439072899521
22.902811547473885,120.27309863001436,7.168829447291792
22.902809263275,120.2730987540351,7.171968726687133
22.90280690490267,120.27309888491793,7.175997722648084
22.902804468529443,120.27309902344054,7.181077492587269
22.902801950107893,120.27309917019765,7.187392833732069
22.902799345546605,120.27309932642446,7.195151062630117
22.90279665018224,120.27309949221242,7.2045793109163645
22.90279385895552,120.27309966888822,7.215917812593282
22.902790966719177,120.27309985654337,7.229410642631352
22.902787967754023,120.27310005618428,7.2452853634282945
22.90278485581295,120.27310026799395,7.263726030342281
22.902781624472873,120.27310049256711,7.284839095622301
22.902778266254852,120.27310073031548,7.30861295260489
22.902774773767945,120.27310098078156,7.334881332844496
22.9027711382134,120.27310124460584,7.363305979877711
22.902767350440516,120.27310152096487,7.393392844706774
22.902763400110775,120.27310180921818,7.424549700319767
22.902759276137747,120.27310210826782,7.456172066897154
22.902754965851237,120.27310241697013,7.487720150828362
22.90275045556919,120.27310273335799,7.518753832221032
22.902745729893805,120.27310305482378,7.54894601854682
22.902740771271574,120.2731033783482,7.57810796391964
22.902735560917172,120.27310370031721,7.60626625597477
22.902730077009704,120.27310401542412,7.633751983761788
22.90272429504466,120.27310431804206,7.661237855136394
22.902718187789915,120.27310460153765,7.68968174290657
22.9027117240979,120.27310485708168,7.720201907217503
22.902704869301555,120.27310507520448,7.753932307124138
22.90269758402648,120.27310524478946,7.791908879220486
22.90268982489485,120.2731053525242,7.834982762873173
22.90268154346956,120.2731053854622,7.88373524850607
22.90267268814595,120.27310532809517,7.938373915910721
22.902663204283805,120.2731051656925,7.998589764595032
22.90265303777082,120.27310488562796,8.063388929128648
22.902642139597972,120.2731044793468,8.130980297923088
22.9026304743943,120.27310394758098,8.198823519349098
22.902618033317058,120.2731033069825,8.263950446486474
22.902604852925045,120.27310259904411,8.323562652945519
22.9025894652352,120.27308451219015,8.722728588819503
22.902540540909673,120.27305959056267,9.011210797309875
22.90243996661557,120.27303948447168,9.36050349855423
22.90234688330026,120.27303608577266,9.635342014312744
22.902314910345023,120.27305388455629,9.924923912286758
22.90232687720276,120.27306736516732,10.10706419491768
22.90235701002091,120.27307432693517,10.242282159328461
22.902385715638196,120.27308669625445,10.352340131998062
22.9024047999349,120.27309926841696,10.332421470165253
22.90240778498703,120.27310721544293,10.309330288410187
22.902394499339998,120.27310470707651,10.298074553012848
22.90236853403768,120.2730933482678,10.301213186264038
22.90233813909384,120.27307264705111,10.30035261797905
22.90231225270529,120.27304604229148,10.301548032522202
22.90229581312516,120.2730203201332,10.300158104658127
22.902288563342033,120.27300094901723,10.311792719841003
22.902288301183347,120.27298759071144,10.30957725906372
22.90229151617975,120.27298045396043,10.317425565242768
22.902295530454392,120.27297609733725,10.320343456506729
22.902298750840032,120.27297275550204,10.331526823759079
22.902299948503565,120.27296799131679,10.334816511154175
22.902298669473613,120.27296024958152,10.319485568523406
22.90229483471542,120.27294994035154,10.318096215009689
22.90228955823843,120.27293524759901,10.300912992477418
22.90228364211448,120.27291880014283,10.297226237535476
22.902278136694076,120.272899280051,10.262796805381775
22.902275307214797,120.27288009029994,10.24204629278183
22.902278508067216,120.27286352477014,10.214886413097382
22.902290457404447,120.27285546557196,10.195107318401337
22.90231169837319,120.27285855817627,10.168961358547211
22.90234087952979,120.27287192917693,10.143112146377563
22.902375404451803,120.27289138609183,10.114297563314437
22.90241221487052,120.27291179910097,10.084347106695175
22.902448039015614,120.27292942306157,10.05779316663742
22.902481310797988,120.27294062097727,10.027707546234131
22.902512175572955,120.27294630312645,10.012307681560516
22.902544635318907,120.27294649549356,9.99594826889038
22.902582225845592,120.27295570678999,10.00662276172638
22.902626114702823,120.27297456883078,9.970972069263459
22.902673009344234,120.27300638570965,9.894499616622925
22.902714923102582,120.27303363445303,9.769480965852738
22.902746329220502,120.27305072365138,9.656091378211975
22.902765863364177,120.2730568525909,9.573113450527192
22.902776980845807,120.27306370671552,9.526646975040435
22.902783449905055,120.27307783593078,9.509881496667862
22.902786645390236,120.27309421197553,9.519232877731323
22.902788636458848,120.27310932649465,9.563676874160766
22.902791202393633,120.2731208200747,9.626168298959731
22.902795808538034,120.27313173788009,9.683871939182282
22.902802104525914,120.27314077314118,9.667000205993652
22.902807831718754,120.27315033435819,9.628415157556534
22.90281261291424,120.27316139434599,9.629746693134308
22.902816353437846,120.27317511677687,9.651687259674073
22.90281994649444,120.2731905250847,9.657281432151795
22.90282360774133,120.27320389407248,9.640850608587265
22.90282719441883,120.27321836309817,9.628830221414566
22.90283046891677,120.27323226769452,9.611047951459884
22.90283293806533,120.27323950765128,9.582075996398926
22.902834898602283,120.27324670305025,9.573751170873642
22.902836782414155,120.27325787580496,9.55244219827652
22.902838807357945,120.27327397087024,9.499836874723435
22.902841006956873,120.27329417472305,9.426974214076996
22.902842913821463,120.27331192144634,9.34542067527771
22.902843103522464,120.27329517041153,9.078536146163941
22.902839757446717,120.27326150795211,8.79264617228508
22.90283240239757,120.27320638308781,8.413932374000549
22.902825887804802,120.27316068023171,8.333443106412888
22.90281927796559,120.27311927166816,8.23456955397129
22.902814375875316,120.27309638117198,8.15976051568985
22.902813162088076,120.27308955710329,8.113947938084603
22.902814343143973,120.27308910228432,8.102753753900528
22.902816182170223,120.2730894610341,8.128644893646241
22.902817859211527,120.27308973144599,8.17626322877407
22.90281942090125,120.27309008612427,8.22559063911438
22.902820765173917,120.27309090948293,8.264851123571397
22.90282218493984,120.27309220115599,8.289204153060913
22.902823873815457,120.27309391983371,8.303545298576354
22.902826039847163,120.2730959769952,8.31282593882084
22.90282872003369,120.27309831431272,8.318549723029136
22.902831906060214,120.27310087377879,8.321368347406388
22.902835540734888,120.27310359573903,8.322440372347831
22.9028395509841,120.27310642438181,8.322938334107398
22.902843846136765,120.2731093098884,8.323951296687126
22.90284822069813,120.27311225111512,8.327524425983428
22.90285253912348,120.27311524380747,8.334679874181747
22.90285666076484,120.27311833124234,8.346369052648544
22.90286081452163,120.2731213832231,8.359647171378136
22.902864923360813,120.27312434576804,8.372717183828355
22.902868945092393,120.2731271233569,8.381697343111039
22.902872647561413,120.27312979426324,8.38494663453102
22.902875986246215,120.27313234814815,8.380986488819122
22.902878900215466,120.27313480084018,8.370937367796898
22.902881355330024,120.27313715979615,8.357145779848098
22.90288333060488,120.27313944885034,8.344076437473298
22.90288483321101,120.27314168868051,8.336164857029916
22.902885896143722,120.27314386949676,8.334541264295579
22.902886553322187,120.27314600355933,8.337137710809708
22.902886849048095,120.27314810299126,8.341038506984711
22.9028868272272,120.27315020182847,8.344994440793991
22.90288653480082,120.2731523126057,8.349117702007295
22.90288601061543,120.27315444264252,8.353979003429414
22.902885278647613,120.2731565897888,8.359778410434723
22.902884338809383,120.27315873185714,8.36630408346653
22.90288315643367,120.27316083334769,8.373450342059135
22.90288170947962,120.27316283117501,8.381548203468324
22.902879986200894,120.27316470127606,8.39190125155449
22.90287800318314,120.27316645179386,8.405737160205842
22.90287579896487,120.27316810477855,8.422679729938507
22.90287333241194,120.27316972706686,8.440374698638916
22.902870510345608,120.27317140274218,8.4545441133976
22.90286724381054,120.27317318368188,8.462810163736343
22.902863458281338,120.27317503168702,8.467957108736039
22.90285903057554,120.2731768279063,8.47422652578354
22.902854048944583,120.2731781162398,8.482854799747468
22.90284849939846,120.2731786829565,8.492409500837326
22.90284247903135,120.27317841926947,8.50253089427948
22.902835738794696,120.27317777876249,8.513312024831771
22.902828231747186,120.2731767353139,8.524929409503937
22.902819898321297,120.27317525237166,8.53760838508606
22.90281066196792,120.27317328167244,8.55163756263256
22.902800426516748,120.27317076113727,8.567388642549515
22.902789071292954,120.27316761189789,8.585346663713455
22.902776449093494,120.27316373449983,8.606149155020715
22.902762381435764,120.27315900300098,8.630643091797829
22.902746657589763,120.27315325966488,8.659972197055817
22.902729035633925,120.27314630768693,8.695695640563965
22.90270925600519,120.27313790515578,8.739970586538314
22.902687073790418,120.27312776390963,8.795805482149124
22.90266233219593,120.27311556358062,8.867401508808136
22.902635100203902,120.27310099189815,8.96051729464531
22.902605889989434,120.27308383714401,9.082530944347381
22.902575920751005,120.27306414598043,9.241112715482712
22.90254727203962,120.27304242757404,9.4389312312603
22.902522639230646,120.27301978827589,9.6619815325737
22.902504500029426,120.2729977998236,9.870728021144867
22.902494022953647,120.27297798292375,10.020909918308258
22.902487100692902,120.27295436811164,10.242049164533615
22.902485202330098,120.27292145890327,10.210588166475295
22.90248771141398,120.27289629691982,10.180964898109437
22.902501724002544,120.27288131396973,10.078745084762573
22.902512110176264,120.27288097377046,10.146485114574432
22.902517121920933,120.27287259390707,10.168147312641144
22.9025224618149,120.27285821864032,10.162033927440643
22.902528740348266,120.27284514968576,10.136124599933625
22.902533218074943,120.27283474484406,10.109017177581787
22.902535080593847,120.27282594229914,10.099397192001343
22.90253426907435,120.27281917722149,10.132226675510406
22.9025333061944,120.27281054815006,10.15846299982071
22.902535165402778,120.27279766150966,10.156782067775726
22.902538702917276,120.27277983461434,10.15036925458908
22.902544148440207,120.27275609353988,10.129534695386887
22.902550134954136,120.27273271096361,10.129345734119415
22.90255796867715,120.27271217375072,10.091573199987412
22.902565198817076,120.27270226910926,10.07534359049797
22.902570106846508,120.27269918237775,10.055336861610412
22.90257296802327,120.27270120542323,10.056393283367157
22.902575831311736,120.27270572907526,10.05406524991989
22.902580760590144,120.27271323684775,10.05311546587944
22.9025884583945,120.27272360534327,10.053215977191925
22.90259867272868,120.272735152642,10.049687934398651
22.90261146764756,120.27274623371926,10.037469587802887
22.902625540012618,120.27275771892756,10.0346188955307
22.902640152532793,120.27276923291087,10.023225698947906
22.902654297135573,120.27278411878534,10.0116320540905
22.902667149290306,120.27280102476601,9.985390943527221
22.902678189782893,120.27281833055461,9.964851791858672
22.902687285796244,120.2728310964109,9.946629569530486
22.90269530779046,120.2728351114395,9.929736585378647
22.902703776233135,120.27283226154712,9.921878132343293
22.902714023078683,120.27282552245391,9.915987212181092
22.90272619869771,120.27281843730579,9.913919550895692
22.902739385468816,120.27281319611416,9.903177093267441
22.902751868912027,120.27281359178195,9.883062003612519
22.902762094376623,120.27281557227109,9.847454387426376
22.90277063681676,120.27282360582794,9.826262773752212
22.902777918880297,120.27283437088333,9.79271114039421
22.902784944240366,120.27285924321818,9.75123557806015
22.90278913891133,120.27288776156159,9.673048115253449
22.902790904819987,120.27291740105527,9.610627909898758
22.902791145333754,120.27294332127619,9.567229422569275
22.90279185750439,120.27296575503202,9.538267231464387
22.90279489245642,120.27298889654327,9.523281856298446
22.902800485996284,120.2730112088402,9.523572286128998
22.902807177707842,120.2730361900306,9.554659190654755
22.902811940030013,120.27305924507958,9.59641082406044
22.90281344162429,120.2730730848521,9.636353253841401
22.90281356889817,120.27308198804094,9.657349779844283
22.902813840559507,120.27308937448035,9.633840471029282
22.902815299215895,120.27310408148313,9.55653884792328
22.902817411311275,120.27312042820391,9.420581694602966
22.902820172710243,120.27313737027916,9.280201469182968
22.902822945591574,120.27314866764932,9.169512094020844
22.90282532195734,120.27315909074417,9.097099915504456
22.90282659680789,120.27316888906908,9.036114245891572
22.90282642325259,120.27317420494306,8.997447065353393
22.902825710774,120.27317825622633,8.997726965427399
22.90282516212809,120.27318234790441,9.011308436870575
22.90282579123855,120.27319264025367,9.041274975299835
22.902827319888974,120.27320074830989,9.0601644012928
22.902829029397655,120.27319770950433,9.089186899185181
22.902830731691367,120.27318095732583,9.141782075881958
22.902833855334773,120.2731648734229,9.192790131092071
22.902838693502147,120.2731581132631,9.274111632347108
22.9028431538513,120.2731402690067,9.282917189121246
22.902845611033566,120.27312966800088,9.29958139038086
22.902846769740645,120.27313258077282,9.25409284210205
22.90284804912255,120.27316255843002,9.29296640586853
22.902850762128402,120.27319694781293,9.30231797838211
22.90285462799017,120.27322610032734,9.324979546070098
22.902858618706162,120.27324845860024,9.340154456853867
22.902861087722744,120.27326541632104,9.34526464343071
22.902861359604046,120.2732799471055,9.340449098587037
22.902860100855207,120.27329347154236,9.327206302404404
22.902858425837614,120.27330575696122,9.307699258327485
22.902857181826676,120.2733153658011,9.284060720682143
22.90285653907816,120.27332136129594,9.258877180576325
22.902856226546643,120.27332386032992,9.234046865940094
22.902855969667204,120.27332365556532,9.210266080856323
22.902855556214053,120.27332169168244,9.187711916685105
22.902854870175698,120.27331867053532,9.166066757678985
22.902853765316955,120.27331501007063,9.145029069900513
22.902852159985443,120.27331091917026,9.124251945734024
22.902850038255433,120.27330656138052,9.104073868989945
22.902847774777598,120.27330196799257,9.08443319272995
22.90284554306324,120.27329716700368,9.065916903018952
22.90284350430542,120.27329214048092,9.048264436244965
22.902841398941078,120.27328699876665,9.031715487957001
22.90283927606723,120.27328178001405,9.015562841415406
22.902837151081684,120.27327648587,8.999245164871216
22.902835011842164,120.2732710884287,8.982444651126862
22.902832823373654,120.27326555960137,8.965062894821168
22.902830540934517,120.27325989051302,8.947272583961487
22.902828264786486,120.2732540828563,8.928722024679184
22.9028259517717,120.27324812212936,8.909550784111023
22.902823558512335,120.273242002751,8.89012070298195
22.902821140616478,120.27323573075991,8.870498788833618
22.90281868092657,120.27322931041053,8.851052817344666
22.902816171963675,120.27322274248058,8.831987257242202
22.902813470220217,120.27321603534182,8.814060633897782
22.90281055545908,120.27320921520739,8.797553613185883
22.902807399700244,120.27320231972728,8.782894277572632
22.902804111256295,120.27319537076865,8.769886677861214
22.90280067002209,120.27318837706922,8.758724657297135
22.9027970066635,120.27318131301055,8.749692519307137
22.902793028397735,120.27317406303514,8.742842338323593
22.902788479313212,120.27316643971659,8.738633020281792
22.9027831123411,120.27315825599445,8.737415301799775
22.902776662331142,120.27314949695513,8.738346323728562
22.90276924859435,120.27314028858652,8.739951250076293
22.902761254184206,120.27313086959765,8.742229889392853
22.902752967347688,120.27312147133227,8.74598556637764
