Latitude,Longitude,Altitude (m)
67.34178,67.63654,10042.958
67.36477,67.638725,10041.687
67.387,67.64045,10041.624
67.4091,67.64223,10041.994
67.429924,67.64337,10044.949
67.453735,67.64648,10043.386
67.47746,67.64933,10041.5205
67.50132,67.6523,10038.608
67.523705,67.65457,10037.613
67.54558,67.656876,10037.517
67.56569,67.65842,10041.011
67.58774,67.66138,10042.207
67.61038,67.66462,10042.776
67.63137,67.66695,10046.118
67.65257,67.669685,10049.731
67.674355,67.67295,10052.872
67.69686,67.676605,10055.028
67.72127,67.681274,10053.557
67.74445,67.68504,10053.1455
67.768265,67.68905,10050.902
67.791985,67.69282,10048.1045
67.8152,67.69608,10045.481
67.84059,67.700386,10038.4795
67.86624,67.70422,10029.665
67.89075,67.70708,10021.279
67.90997,67.706894,10021.4375
67.92943,67.707214,10022.936
67.95017,67.7085,10024.217
67.971466,67.710205,10025.77
67.99379,67.71259,10026.165
68.01729,67.71579,10024.51
68.04057,67.71892,10022.687
68.062996,67.72161,10021.773
68.08428,67.72379,10022.821
68.10448,67.72556,10026.333
68.125084,67.72782,10030.326
68.14501,67.7298,10036.589
68.168465,67.73401,10037.674
68.19256,67.73837,10037.142
68.21468,67.74164,10038.921
68.23689,67.74509,10040.302
68.26105,67.74955,10038.147
68.28302,67.75254,10038.997
68.304794,67.75546,10040.105
68.32722,67.75877,10040.398
68.35044,67.76227,10039.257
68.37385,67.765785,10037.3955
68.39759,67.76938,10034.297
68.41882,67.771355,10034.982
68.438324,67.77269,10039.288
68.45807,67.7746,10044.735
68.48068,67.77818,10046.495
68.50532,67.78276,10044.605
68.52955,67.78683,10042.1
68.55325,67.79063,10039.242
68.57658,67.79396,10036.226
68.59964,67.79716,10033.14
68.62185,67.79964,10031.23
68.64494,67.80249,10027.912
68.66806,67.80516,10024.399
68.68863,67.80643,10025.265
68.70787,67.80741,10029.495
68.7282,67.80934,10033.591
68.75179,67.81321,10033.124
68.77527,67.81682,10032.359
68.79758,67.81988,10032.76
68.82142,67.82376,10030.202
68.84634,67.82811,10024.945
68.86856,67.83069,10023.055
68.88923,67.83248,10023.754
68.90917,67.83407,10026.674
68.93083,67.83673,10027.878
68.95516,67.84087,10024.737
68.97973,67.84476,10020.077
69.001045,67.846695,10019.908
69.0218,67.84856,10021.001
69.04422,67.851265,10020.006
69.066696,67.85366,10019.005
69.08876,67.855545,10018.6455
69.108925,67.85647,10021.784
69.13068,67.858444,10023.164
69.15439,67.86148,10021.489
69.176094,67.86332,10022.635
69.195244,67.86405,10028.371
69.21572,67.866035,10033.186
69.23636,67.868286,10038.761
69.25866,67.87169,10041.981
69.283066,67.87606,10041.176
69.30484,67.878845,10043.696
69.32575,67.88139,10047.459
69.34875,67.885216,10047.99
69.37135,67.88846,10048.787
69.39427,67.89177,10048.523
69.41699,67.894775,10048.153
69.43972,67.89765,10047.441
69.46363,67.901054,10044.332
69.488686,67.90469,10038.4
69.51258,67.90729,10033.095
69.5349,67.90883,10029.784
69.5571,67.9103,10026.754
69.57877,67.91143,10024.988
69.60118,67.912926,10022.393
69.62327,67.914215,10020.555
69.645485,67.91566,10018.624
69.66679,67.91679,10018.455
69.68952,67.918785,10016.176
69.712265,67.92077,10013.716
69.735306,67.922905,10010.356
69.757515,67.92456,10008.03
69.78116,67.9269,10003.059
69.80499,67.92925,9997.086
69.82806,67.93086,9991.587
69.848145,67.93091,9990.91
69.868164,67.93125,9991.393
69.88961,67.93263,9990.66
69.9123,67.934586,9988.163
69.934715,67.93638,9985.887
69.95603,67.9376,9985.31
69.97729,67.93905,9985.154
69.9966,67.93971,9988.955
70.015915,67.94082,9994.057
70.03606,67.942635,9999.103
70.05803,67.9456,10001.859
70.08006,67.94866,10004.43
70.10333,67.95245,10004.454
70.12605,67.95579,10004.573
70.14806,67.95873,10005.257
70.17146,67.962296,10003.276
70.19501,67.965614,10000.251
70.218506,67.96855,9996.387
70.23776,67.96911,9999.255
70.257385,67.9703,10002.656
70.2781,67.97221,10005.559
70.29908,67.97442,10008.717
70.321815,67.97759,10009.138
70.347496,67.98215,10003.794
70.36974,67.98447,10002.606
70.38935,67.98564,10005.523
70.40911,67.987274,10009.314
70.429474,67.989296,10013.237
70.45149,67.99226,10015.043
70.473274,67.99505,10017.169
70.49729,67.998955,10015.106
70.521996,68.00296,10010.683
70.548325,68.00747,10001.66
70.57237,68.01004,9994.341
70.59486,68.011604,9988.537
70.61596,68.01222,9985.075
70.63696,68.0128,9982.458
70.65855,68.013695,9979.636
70.680214,68.01462,9977.102
70.70052,68.01496,9977.292
70.721466,68.016045,9977.241
70.742615,68.01738,9977.48
70.76667,68.02037,9972.979
70.792465,68.023865,9964.458
70.81506,68.02527,9959.613
70.83824,68.02697,9953.194
70.859245,68.02743,9950.318
70.87807,68.02704,9951.886
70.89411,68.02566,9960.182
70.91175,68.025955,9968.778
70.93212,68.02823,9974.929
70.953606,68.031334,9979.894
70.97679,68.03552,9981.607
70.99877,68.03906,9984.418
71.02119,68.04295,9985.891
71.04437,68.04711,9985.389
71.065636,68.049965,9987.42
71.088524,68.05357,9986.516
71.11268,68.05751,9982.906
71.13721,68.06105,9977.3955
71.1603,68.06355,9972.948
71.18085,68.06461,9972.307
71.19986,68.06507,9975.031
71.21909,68.06602,9978.937
71.23935,68.067764,9982.45
71.25958,68.06974,9986.753
71.27786,68.07103,9995.059
71.29868,68.07388,10000.2
71.32162,68.077354,10001.8125
71.34336,68.07956,10004.442
71.36588,68.0817,10004.962
71.388664,68.08338,10004.268
71.41103,68.08446,10003.409
71.43576,68.08633,9997.794
71.460464,68.08752,9990.642
71.48254,68.0869,9986.443
71.50332,68.08561,9984.247
71.52342,68.08416,9983.837
71.54108,68.08175,9988.676
71.56103,68.08108,9991.499
71.58282,68.081474,9992.137
71.6048,68.081955,9992.273
71.627495,68.08292,9990.682
71.648476,68.08303,9991.336
71.671005,68.083954,9989.238
71.69227,68.084045,9988.896
71.713005,68.08391,9989.349
71.73359,68.0837,9990.414
71.75385,68.08343,9992.509
71.77532,68.08382,9993.011
71.796486,68.08402,9994.013
71.81901,68.08497,9992.622
71.84211,68.085976,9989.655
71.863396,68.08586,9989.019
71.88343,68.08524,9990.495
71.90241,68.08432,9994.564
71.92229,68.08414,9998.309
71.94608,68.086,9995.992
71.970856,68.08779,9990.836
71.99163,68.08733,9990.845
72.01097,68.086464,9993.346
72.03086,68.08611,9996.022
72.05266,68.08674,9996.196
72.07443,68.08724,9996.303
72.09644,68.08772,9995.638
72.11823,68.08812,9994.987
72.13879,68.08786,9996.224
72.160225,68.08821,9996.12
72.18111,68.088234,9996.927
72.20274,68.08867,9996.506
72.22413,68.088875,9996.328
72.24598,68.08929,9995.149
72.26732,68.089355,9994.534
72.28847,68.08933,9994.12
72.30896,68.08899,9994.849
72.33007,68.089035,9994.85
72.35117,68.08901,9994.9795
72.370445,68.08819,9998.377
72.38892,68.08731,10004.043
72.40803,68.087265,10009.908
72.42898,68.0883,10013.526
72.450226,68.08957,10016.6
72.4716,68.0909,10019.07
72.49299,68.09216,10021.086
72.51466,68.09359,10022.213
72.53893,68.096054,10018.245
72.56118,68.096855,10016.179
72.5822,68.0969,10015.401
72.60398,68.0972,10013.28
72.62416,68.09658,10013.806
72.64452,68.0961,10014.4375
72.666046,68.09619,10013.5205
72.68737,68.0961,10012.851
72.70945,68.096306,10010.722
72.732,68.09667,10007.354
72.75355,68.09633,10005.006
72.77476,68.09582,10003.017
72.79393,68.09431,10004.66
72.81182,68.09255,10009.499
72.8302,68.091545,10015.167
72.85237,68.09267,10015.627
72.87549,68.094,10013.907
72.897354,68.09463,10013.06
72.91965,68.095314,10010.75
72.94182,68.09582,10007.947
72.96222,68.09527,10007.625
72.981476,68.09423,10009.4795
73.001686,68.093796,10010.579
73.02374,68.09421,10008.97
73.0463,68.094765,10006.0205
73.065796,68.09366,10007.535
73.08391,68.092255,10011.989
73.10332,68.091934,10015.665
73.12464,68.09267,10016.857
73.14647,68.09345,10016.936
73.169365,68.094604,10014.549
73.18961,68.09428,10015.732
73.21046,68.09447,10015.924
73.231285,68.09458,10016.255
73.251884,68.09456,10016.911
73.2739,68.09506,10015.23
73.29609,68.0955,10012.761
73.31647,68.09488,10012.769
73.33691,68.094444,10012.824
73.35746,68.09405,10013.012
73.377556,68.09345,10014.235
73.39724,68.09286,10016.583
73.41656,68.092186,10020.16
73.43624,68.09205,10023.856
73.45933,68.09361,10022.212
73.483215,68.09515,10018.095
73.50571,68.095566,10014.757
73.52785,68.09561,10011.134
73.5499,68.09543,10007.115
73.57068,68.09433,10004.962
73.59007,68.09255,10005.474
73.60954,68.09108,10006.797
73.63137,68.0909,10004.998
73.65052,68.08938,10007.693
73.67043,68.08867,10009.727
73.69176,68.08883,10009.905
73.713486,68.08915,10009.21
73.73563,68.08957,10007.241
73.75691,68.08947,10006.1045
73.77869,68.0895,10003.808
73.80021,68.08924,10001.597
73.82112,68.0886,10000.147
73.84065,68.087265,10001.097
73.86055,68.08633,10002.112
73.88273,68.08653,9999.798
73.90439,68.08628,9997.838
73.92485,68.08543,9997.502
73.94484,68.08446,9998.169
73.964645,68.08361,9999.644
73.98532,68.08338,10000.172
74.00664,68.08338,9999.685
74.02794,68.083244,9998.988
74.04878,68.08289,9998.77
74.068695,68.08225,10000.084
74.08837,68.081566,10002.146
74.1079,68.081055,10004.985
74.12717,68.08055,10008.853
74.147354,68.080734,10011.733
74.16878,68.08152,10012.667
74.191284,68.08262,10011.261
74.21479,68.08386,10007.119
74.23702,68.084045,10003.729
74.25744,68.08322,10002.658
74.277374,68.08216,10002.643
74.29855,68.081635,10001.07
74.31923,68.08078,10000.43
74.338394,68.079285,10002.537
74.35841,68.07851,10003.995
74.38032,68.07871,10002.75
74.4011,68.078255,10002.987
74.42207,68.07797,10002.763
74.44369,68.07786,10001.355
74.46504,68.07756,10000.08
74.485146,68.076645,10000.678
74.50396,68.07531,10003.808
74.523056,68.07448,10007.422
74.54322,68.07436,10010.066
74.56451,68.0748,10011.0205
74.58738,68.07588,10008.738
74.609695,68.07641,10006.261
74.63048,68.07604,10005.408
74.65004,68.07513,10006.438
74.66975,68.07439,10007.734
74.68992,68.073906,10008.745
74.71123,68.073906,10008.07
74.733055,68.073975,10006.143
74.7528,68.07303,10007.167
74.77277,68.07234,10008.077
74.79386,68.072205,10007.387
74.81308,68.07119,10009.726
74.83218,68.070366,10012.764
74.85029,68.06928,10018.213
74.869354,68.069145,10023.023
74.89045,68.07006,10024.926
74.912964,68.07149,10023.906
74.93443,68.07207,10023.41
74.9568,68.07289,10020.555
74.97857,68.07305,10017.745
74.9987,68.072205,10017.006
75.02037,68.072,10013.738
75.04065,68.07082,10012.553
75.060814,68.06956,10011.666
75.08125,68.068474,10010.668
75.10079,68.067055,10011.365
75.12181,68.06643,10010.031
75.1438,68.06613,10006.96
75.166824,68.06604,10001.392
75.18637,68.06409,10000.747
75.20638,68.062546,9999.695
75.22571,68.06082,10000.303
75.24268,68.05836,10005.706
75.26057,68.05695,10011.205
75.28036,68.05679,10014.771
75.3,68.056725,10018.847
75.31887,68.056656,10024.355
75.342636,68.05884,10021.874
75.363304,68.05914,10023.067
75.38276,68.05896,10025.727
75.40076,68.0582,10031.163
75.42051,68.058495,10034.569
75.44092,68.05903,10037.193
75.46145,68.0596,10039.375
75.48242,68.060196,10040.51
75.502464,68.06029,10042.806
75.52288,68.06059,10044.423
75.542435,68.06049,10047.354
75.56417,68.0613,10046.708
75.584625,68.06126,10047.635
75.60633,68.061646,10046.167
75.62623,68.061005,10047.1875
75.64483,68.05992,10050.489
75.66446,68.05944,10052.8545
75.68577,68.059784,10052.694
75.705734,68.059326,10054.377
75.72735,68.05958,10053.174
75.74945,68.059784,10050.57
75.7711,68.05951,10047.795
75.79189,68.05854,10045.862
75.81286,68.0576,10043.4795
75.83496,68.05691,10039.069
75.8551,68.05507,10037.484
75.87782,68.05431,10031.686
75.89903,68.0525,10027.811
75.91818,68.049805,10027.231
75.93441,68.04622,10032.46
75.95569,68.045456,10031.157
75.97765,68.04484,10028.714
75.99992,68.04419,10024.929
76.01945,68.04228,10024.901
76.03474,68.0389,10032.457
76.050026,68.03665,10042.394
76.06779,68.03619,10050.578
76.08731,68.0369,10056.947
76.11208,68.03978,10054.373
76.13543,68.04146,10051.992
76.15587,68.041435,10052.545
76.17544,68.04099,10054.18
76.19447,68.04033,10056.991
76.21601,68.04065,10056.049
76.237015,68.040375,10055.51
76.25763,68.039734,10055.151
76.276054,68.03817,10058.372
76.29649,68.03782,10058.983
76.31751,68.03759,10058.653
76.34077,68.03801,10054.0625
76.360176,68.03635,10054.701
76.37761,68.03407,10058.911
76.399765,68.034164,10056.464
76.42313,68.03442,10051.347
76.44323,68.03278,10050.238
76.463776,68.03136,10048.231
76.48334,68.02954,10048.045
76.50226,68.02761,10049.342
76.52194,68.02621,10050.115
76.54114,68.024666,10052.073
76.55994,68.02315,10055.287
76.58113,68.02303,10055.109
76.60228,68.022736,10054.611
76.6222,68.02172,10055.645
76.64267,68.02115,10055.803
76.66263,68.0202,10056.79
76.68321,68.01945,10056.823
76.70333,68.01857,10057.517
76.72307,68.017494,10058.837
76.74247,68.016365,10060.948
76.7614,68.01519,10064.248
76.7812,68.014595,10066.59
76.80399,68.01521,10063.962
76.82917,68.0163,10056.099
76.85114,68.01526,10051.262
76.869316,68.01246,10051.916
76.88707,68.009766,10054.334
76.905334,68.0077,10057.411
76.924576,68.00632,10059.935
76.94513,68.005554,10060.751
76.968124,68.005714,10057.256
76.99278,68.006134,10049.618
77.016884,68.00562,10040.776
77.03982,68.0039,10032.022
77.06149,68.001076,10024.365
77.08161,67.99732,10019.111
77.09862,67.9924,10019.704
77.11435,67.987686,10024.443
77.13107,67.98435,10030.079
77.14905,67.982376,10035.574
77.16603,67.980675,10043.864
77.18559,67.98077,10048.991
77.20739,67.981964,10050.446
77.22947,67.98302,10050.36
77.25166,67.98378,10048.75
77.27336,67.983826,10046.726
77.29273,67.98258,10047.849
77.31053,67.98054,10051.866
77.329796,67.97872,10054.384
77.34982,67.9761,10056.016
77.36978,67.972374,10057.633
77.38817,67.96727,10061.799
77.404526,67.961174,10069.95
77.42607,67.95726,10070.806
77.449646,67.95363,10067.618
77.47205,67.948616,10064.461
77.492424,67.94238,10063.389
77.51179,67.93558,10063.829
77.532234,67.92916,10062.86
77.55339,67.92286,10060.645
77.57369,67.91589,10059.4795
77.594315,67.908966,10057.699
77.615036,67.90205,10055.698
77.633606,67.89425,10057.089
77.65022,67.88604,10062.443
77.66621,67.878265,10070.497
77.68607,67.87268,10073.852
77.708885,67.868286,10072.279
77.73413,67.86422,10065.028
77.75831,67.85874,10056.902
77.77977,67.851364,10051.26
77.80153,67.84373,10044.506
77.82193,67.83505,10039.665
77.84097,67.825676,10037.273
77.85813,67.81585,10038.992
77.87548,67.80663,10042.083
77.89589,67.79932,10041.538
77.91799,67.7926,10038.242
77.93738,67.78469,10038.517
77.95397,67.776,10043.637
77.97309,67.76905,10046.018
77.99378,67.76277,10046.27
78.01457,67.75643,10045.859
78.0352,67.74973,10045.153
78.054504,67.74247,10046.232
78.07435,67.73553,10046.637
78.093346,67.72814,10048.497
78.11304,67.72106,10049.472
78.13423,67.71455,10048.066
78.15603,67.70795,10045.095
78.1771,67.700615,10042.427
78.19952,67.69357,10036.901
78.22079,67.685524,10032.381
78.239426,67.67617,10031.795
78.25837,67.66722,10031.446
78.27744,67.65844,10031.734
78.29611,67.64967,10033.34
78.31356,67.64094,10037.751
78.33157,67.63296,10042.378
78.3491,67.625275,10048.738
78.36927,67.619064,10051.574
78.38967,67.612854,10053.759
78.41041,67.60664,10054.852
78.43195,67.60049,10053.938
78.45532,67.59462,10048.987
78.47834,67.58761,10043.005
78.49817,67.57889,10040.903
78.51811,67.57004,10038.679
78.53735,67.560814,10037.99
78.556015,67.55145,10038.874
78.57521,67.5426,10039.638
78.59586,67.53434,10038.515
78.61676,67.5262,10036.811
78.636086,67.51751,10037.358
78.65623,67.50912,10036.777
78.677,67.50091,10035.181
78.69649,67.49205,10035.465
78.715904,67.483246,10036.113
78.73563,67.47464,10036.595
78.753845,67.46558,10039.824
78.77299,67.45719,10042.268
78.790955,67.44854,10047.089
78.809364,67.440445,10051.869
78.82922,67.43325,10054.818
78.850044,67.426346,10055.966
78.87035,67.41904,10057.253
78.89037,67.41147,10058.548
78.91038,67.40372,10059.608
78.93257,67.39664,10056.7705
78.95493,67.388954,10052.581
78.97488,67.37975,10051.214
78.99496,67.37054,10049.497
79.015625,67.36138,10046.935
79.036385,67.352066,10043.958
79.05576,67.342064,10043.053
79.075516,67.33231,10041.817
79.09531,67.32247,10040.825
79.11521,67.31281,10039.798
79.1344,67.30299,10040.075
79.151825,67.29273,10043.658
79.16976,67.28307,10047.537
79.18821,67.27406,10051.473
79.20779,67.26576,10054.05
79.22752,67.25741,10056.303
79.24704,67.24911,10058.753
79.26705,67.24085,10060.249
79.28804,67.23278,10059.853
79.3096,67.22464,10057.793
79.33092,67.215836,10055.205
79.35166,67.20645,10052.829
79.37175,67.19652,10051.138
79.39053,67.18605,10051.613
79.40941,67.17575,10052.452
79.429214,67.165855,10052.256
79.44803,67.15565,10053.895
79.46746,67.1459,10054.847
79.48771,67.136444,10054.612
79.50801,67.12697,10054.05
79.527596,67.11706,10054.366
79.54823,67.107445,10052.967
79.56829,67.0974,10052.219
79.587296,67.08693,10053.067
79.60604,67.07649,10054.725
79.62596,67.066605,10054.908
79.646194,67.05676,10054.563
79.6667,67.04685,10053.501
79.68759,67.03684,10051.403
79.707405,67.026245,10050.601
79.72605,67.0153,10051.675
79.74444,67.00437,10053.729
79.76341,66.99382,10055.415
79.78274,66.98363,10056.903
79.802666,66.973625,10057.499
79.82246,66.96353,10058.124
79.84229,66.953384,10058.521
79.8614,66.94299,10059.985
79.88078,66.93265,10061.119
79.90098,66.92248,10060.993
79.921684,66.91227,10059.748
79.94265,66.90189,10057.534
79.96318,66.89105,10055.461
79.982956,66.879684,10054.268
80.00196,66.868034,10054.375
80.02057,66.856285,10055.546
80.0409,66.845184,10054.433
80.06307,66.83454,10050.099
80.083405,66.82281,10047.81
80.10061,66.809975,10050.368
80.11581,66.797,10057.4
80.13224,66.78526,10064.453
80.15102,66.77505,10069.08
80.17127,66.76539,10071.477
80.19307,66.75603,10070.682
80.215385,66.74635,10067.784
80.2372,66.73589,10064.248
80.25826,66.72453,10060.774
80.27736,66.71196,10059.955
80.29655,66.699394,10059.361
80.31589,66.68685,10058.978
80.33466,66.67416,10059.836
80.35437,66.661964,10059.627
80.37425,66.6498,10059.202
80.39406,66.637535,10058.8125
80.41291,66.62503,10059.902
80.43132,66.61251,10062.015
80.45044,66.6004,10063.441
80.470795,66.58884,10063.046
80.49021,66.57664,10063.797
80.50955,66.56447,10064.61
80.528786,66.552315,10065.656
80.5483,66.54014,10066.323
80.5684,66.52805,10066.028
80.5884,66.515816,10065.6
80.60795,66.50322,10065.6875
80.62625,66.49006,10067.844
80.64467,66.47717,10070.336
80.66396,66.464676,10071.899
80.68353,66.45219,10073.1045
80.70257,66.43948,10075.134
80.72266,66.42713,10075.51
80.74292,66.41471,10075.33
80.76183,66.401665,10076.928
80.781204,66.38877,10077.934
80.801476,66.376114,10077.517
80.82217,66.36329,10076.048
80.84231,66.34994,10074.935
80.86143,66.336075,10075.218
80.88019,66.32213,10076.281
80.899864,66.308525,10076.228
80.91971,66.294876,10075.89
80.93936,66.28094,10075.691
80.958084,66.266785,10076.994
80.976036,66.25243,10079.881
80.993515,66.238335,10084.211
81.0122,66.224915,10087.366
81.03289,66.21217,10087.504
81.05391,66.19923,10086.446
81.074814,66.185715,10084.744
81.09519,66.17169,10083.158
81.11534,66.1572,10081.536
81.13523,66.14241,10080.139
81.15448,66.12719,10079.732
81.17349,66.11178,10079.969
81.19232,66.09647,10080.891
81.21186,66.08143,10081.038
81.23138,66.06638,10081.287
81.25064,66.0513,10081.951
81.27043,66.03632,10081.831
81.290504,66.021355,10081.198
81.31044,66.00611,10080.495
81.32942,65.9904,10081.202
81.34887,65.9749,10081.355
81.36861,65.95945,10081.122
81.38807,65.94376,10081.267
81.4078,65.92809,10080.974
81.42723,65.9122,10081.07
81.445656,65.895996,10082.8545
81.46348,65.87985,10086.062
81.48148,65.86398,10089.676
81.5003,65.84858,10092.521
81.52003,65.8336,10094.041
81.54033,65.818474,10094.295
81.56012,65.80251,10094.771
81.57979,65.78567,10095.044
81.59992,65.76809,10094.212
81.62099,65.74982,10091.443
81.64119,65.73027,10089.413
81.660995,65.71005,10087.67
81.6802,65.68938,10086.84
81.6993,65.66858,10086.449
81.7175,65.64761,10087.796
81.7366,65.62715,10088.249
81.75678,65.60705,10087.181
81.77603,65.58659,10087.307
81.79558,65.566376,10086.957
81.81528,65.546005,10086.24
81.833954,65.52528,10087.08
81.850525,65.504,10091.644
81.86732,65.483315,10096.985
81.8861,65.46361,10100.137
81.90647,65.44437,10100.819
81.92629,65.42464,10101.738
81.94805,65.40511,10098.968
81.969925,65.38487,10094.898
81.99117,65.363625,10090.691
82.01042,65.34114,10088.984
82.02996,65.31849,10087.026
82.049446,65.29567,10085.433
82.06822,65.27262,10085.253
