Latitude,Longitude,Altitude (m)
86.991066,42.958885,9838.041
87.01443,42.78461,9841.933
87.03877,42.619896,9842.231
87.06294,42.460674,9837.988
87.08588,42.290092,9835.436
87.10917,42.112965,9834.959
87.13284,41.932564,9836.211
87.15645,41.747128,9840.338
87.1807,41.56683,9843.071
87.20463,41.38724,9844.505
87.22798,41.20244,9846.64
87.251205,41.012505,9850.224
87.2748,40.822845,9853.279
87.29892,40.639984,9852.05
87.32259,40.45672,9847.892
87.34557,40.262196,9845.826
87.3689,40.059692,9846.85
87.39316,39.859745,9847.537
87.41802,39.66799,9843.895
87.44171,39.46649,9841.774
87.46594,39.262978,9839.529
87.49069,39.062004,9835.05
87.51442,38.84775,9834.713
87.53837,38.62384,9839.368
87.56337,38.40508,9843.428
87.58855,38.193848,9843.479
87.61245,37.9742,9844.351
87.636406,37.7493,9845.907
87.66083,37.524754,9846.016
87.68564,37.304764,9842.082
87.709404,37.07277,9840.29
87.73353,36.833805,9840.684
87.75762,36.586193,9845.21
87.78259,36.34248,9849.213
87.807205,36.097664,9852.9375
87.832344,35.860584,9851.468
87.85709,35.624622,9845.39
87.8808,35.374237,9841.428
87.905136,35.116554,9839.376
87.93039,34.859444,9836.605
87.95527,34.595036,9836.041
87.98032,34.325474,9837.54
88.00564,34.054543,9839.658
88.03108,33.784153,9840.627
88.056625,33.51618,9838.47
88.08134,33.238888,9837.118
88.106094,32.95369,9837.359
88.131386,32.666695,9837.424
88.156364,32.372826,9839.123
88.180725,32.064407,9846.645
88.206085,31.759096,9854.257
88.23116,31.455338,9861.732
88.25594,31.15381,9868.869
88.28096,30.86163,9872.963
88.305824,30.577648,9873.8955
88.33174,30.315653,9865.496
88.35703,30.061281,9852.15
88.38109,29.793041,9845.322
88.40732,29.53752,9838.832
88.43487,29.304213,9827.847
88.460335,29.059498,9825.398
88.48764,28.831148,9823.504
88.51383,28.603268,9828.119
88.54021,28.385311,9836.77
88.56649,28.18197,9846.425
88.592964,28.001316,9850.173
88.618324,27.830238,9848.735
88.64165,27.643663,9851.79
88.66558,27.452614,9857.319
88.69008,27.262737,9862.853
88.71553,27.085728,9861.865
88.74121,26.919859,9851.215
88.765236,26.736938,9841.6045
88.78942,26.53561,9837.774
88.814865,26.326899,9838.462
88.84074,26.112278,9843.589
88.86731,25.901083,9848.656
88.893524,25.689957,9853.075
88.91985,25.482279,9853.722
88.945435,25.26882,9853.053
88.97098,25.04947,9851.376
88.9963,24.818832,9851.612
89.022415,24.586456,9851.01
89.04863,24.349747,9850.184
89.07459,24.10363,9851.437
89.10103,23.853582,9853.242
89.12725,23.59531,9857.082
89.154366,23.341158,9857.509
89.180435,23.074654,9859.801
89.206665,22.79978,9863.577
89.23341,22.522663,9866.308
89.26032,22.244108,9866.6875
89.28678,21.95631,9867.183
89.31324,21.65791,9869.172
89.34085,21.362154,9867.208
89.36808,21.058199,9864.102
89.395294,20.743149,9861.718
89.4233,20.423763,9857.676
89.45133,20.094593,9854.068
89.479744,19.756878,9850.776
89.508125,19.406424,9849.792
89.53694,19.046782,9850.162
89.565865,18.677664,9851.957
89.59488,18.30013,9854.486
89.62404,17.915834,9856.228
89.65298,17.521627,9857.718
89.68203,17.119268,9857.896
89.71119,16.707733,9856.484
89.73979,16.277386,9857.782
89.769165,15.837506,9858.982
89.79838,15.382392,9862.225
89.828,14.916468,9865.766
89.857704,14.438735,9869.305
89.88729,13.946065,9873.596
89.916824,13.436723,9879.281
89.94656,12.912512,9885.536
89.976776,12.378666,9889.297
90.006996,11.832103,9890.282
90.036964,11.265934,9891.074
90.06739,10.682506,9891.098
90.09842,10.084371,9889.156
90.12943,9.464239,9887.945
90.16088,8.82357,9887.514
90.192856,8.16393,9887.194
90.225586,7.490835,9883.793
90.25788,6.79157,9881.53
90.290276,6.064306,9881.96
90.32319,5.31309,9883.875
90.35648,4.5404058,9885.573
90.38935,3.7376301,9889.848
90.42255,2.9101207,9894.262
90.455536,2.0543134,9899.466
90.4884,1.1691388,9905.313
90.52142,0.2576781,9909.615
90.5539,-0.68851984,9914.743
90.58662,-1.6645683,9918.617
90.61953,-2.6686962,9919.34
90.65186,-3.7114594,9920.684
90.684135,-4.7935824,9923.868
90.71667,-5.910144,9927.351
90.749344,-7.0586715,9929.014
90.781845,-8.240671,9928.06
90.81373,-9.463974,9927.057
90.84504,-10.734387,9929.077
90.87654,-12.042872,9930.936
90.90752,-13.391108,9932.451
90.9377,-14.781508,9934.028
90.96733,-16.209854,9933.542
90.996086,-17.67763,9930.8955
91.02358,-19.191101,9928.942
91.0501,-20.748552,9927.831
91.07548,-22.348953,9927.749
91.09959,-23.988977,9927.706
91.12226,-25.665245,9926.148
91.14303,-27.380241,9923.646
91.16181,-29.134722,9920.844
91.17855,-30.928707,9918.572
91.19301,-32.76156,9917.55
91.20501,-34.63136,9918.191
91.21422,-36.537445,9921.993
91.22038,-38.475765,9928.893
91.22344,-40.43255,9933.254
91.22275,-42.403687,9932.556
91.2181,-44.391624,9928.308
91.20992,-46.391815,9920.148
91.19843,-48.401524,9908.935
91.183815,-50.41761,9895.713
91.16625,-52.437325,9882.085
91.14579,-54.455715,9868.681
91.12244,-56.466167,9854.855
91.09605,-58.46782,9842.907
91.06629,-60.45279,9830.746
91.03297,-62.41932,9819.04
90.996216,-64.36689,9810.002
90.95593,-66.289795,9802.662
90.91194,-68.181656,9794.667
90.864265,-70.04064,9785.526
90.813286,-71.86551,9775.4
90.75938,-73.65487,9764.395
90.70278,-75.40584,9751.444
90.64418,-77.118904,9737.915
90.58367,-78.792336,9723.343
90.521805,-80.4263,9708.947
90.45909,-82.0193,9695.283
90.395546,-83.57061,9682.932
90.33097,-85.078766,9671.415
90.26545,-86.54309,9660.496
90.19921,-87.964745,9651.1875
90.13238,-89.343704,9643.731
90.0647,-90.679924,9637.631
89.99616,-91.97209,9631.167
89.926796,-93.22189,9624.101
89.857155,-94.43101,9616.527
89.78768,-95.6018,9609.36
89.718575,-96.734375,9602.201
89.64978,-97.829506,9594.647
89.58146,-98.88878,9586.893
89.51394,-99.91264,9578.41
89.4474,-100.90266,9569.5625
89.38193,-101.85985,9560.431
89.31716,-102.78512,9550.564
89.25351,-103.680176,9540.58
89.19115,-104.5465,9531.182
89.130295,-105.3849,9522.747
89.07051,-106.19618,9515.42
89.01151,-106.98067,9508.626
88.953255,-107.7392,9502.256
88.89539,-108.47261,9495.847
88.83825,-109.18226,9489.702
88.7818,-109.86891,9483.778
88.72588,-110.53346,9477.894
88.67075,-111.176926,9471.994
88.61654,-111.800125,9466.001
88.56329,-112.404205,9460.052
88.51114,-112.990036,9454.388
88.45977,-113.55818,9448.895
88.409355,-114.10945,9443.888
88.35966,-114.644356,9439.4
88.31087,-115.16352,9435.68
88.262726,-115.66732,9432.567
88.215,-116.156,9429.675
88.16755,-116.62987,9426.524
88.12042,-117.08942,9422.9375
88.073814,-117.53519,9418.748
88.02804,-117.96804,9414.472
87.98341,-118.38912,9411.39
87.939995,-118.79865,9409.625
87.897156,-119.196785,9408.548
87.85463,-119.58364,9407.271
87.81215,-119.95952,9405.197
87.77008,-120.32527,9403.082
87.72847,-120.68123,9401.245
87.68728,-121.02747,9399.313
87.64636,-121.364395,9397.164
87.60608,-121.6927,9394.804
87.56692,-122.012794,9392.277
87.52864,-122.324875,9389.806
87.49105,-122.62914,9387.799
87.45379,-122.92553,9386.105
87.41674,-123.21436,9384.741
87.3804,-123.496056,9383.767
87.34431,-123.77065,9382.48
87.30819,-124.03837,9380.699
87.27233,-124.299545,9378.46
87.236824,-124.55435,9375.777
87.20199,-124.80327,9373.191
87.16794,-125.046585,9371.134
87.13486,-125.284645,9370.036
87.102325,-125.51751,9370.114
87.07026,-125.74528,9371.475
87.03812,-125.96775,9373.274
87.00534,-126.18496,9375.3125
86.97218,-126.39708,9377.524
86.93867,-126.60404,9379.515
86.90485,-126.80602,9381.107
86.871254,-127.00341,9382.411
86.838005,-127.19643,9383.278
86.80537,-127.38538,9383.834
86.773445,-127.570404,9384.261
86.74242,-127.75165,9384.96
86.711426,-127.9289,9385.335
86.68069,-128.1025,9385.118
86.65042,-128.27266,9384.65
86.62039,-128.43935,9383.825
86.590645,-128.60257,9382.518
86.56147,-128.76253,9381.08
86.532715,-128.91922,9379.615
86.50438,-129.07288,9377.875
86.47626,-129.22371,9375.345
86.44872,-129.37187,9372.283
86.421394,-129.51724,9369.001
86.39464,-129.65988,9366.041
86.36857,-129.79982,9363.4
86.342606,-129.93706,9360.712
86.316696,-130.07184,9357.859
86.29117,-130.20435,9355.008
86.26606,-130.3346,9352.667
86.24092,-130.46227,9350.381
86.215515,-130.58733,9348.255
86.19031,-130.70996,9346.422
86.16523,-130.83029,9344.876
86.1407,-130.94841,9344.077
86.116356,-131.06412,9344.236
86.09183,-131.17746,9345.342
86.067,-131.28856,9347.025
86.041885,-131.39763,9349.202
86.01707,-131.50464,9352.75
85.99127,-131.60936,9356.335
85.96475,-131.7121,9359.214
85.93774,-131.81296,9361.271
85.91042,-131.91199,9362.338
85.88371,-132.00934,9363.066
85.85762,-132.10495,9363.6045
85.832214,-132.19887,9364.09
85.807205,-132.29123,9364.617
85.7829,-132.38234,9365.691
85.75989,-132.47227,9367.702
85.73633,-132.56042,9370.375
85.712074,-132.64706,9372.807
85.68729,-132.73227,9374.807
85.66194,-132.81604,9376.179
85.63687,-132.8985,9377.225
85.611755,-132.97943,9377.525
85.58681,-133.059,9377.147
85.56244,-133.13731,9376.689
85.53916,-133.21458,9376.72
85.51689,-133.29074,9377.536
85.49487,-133.3656,9379.091
85.4725,-133.43907,9381.252
85.45006,-133.51132,9384.196
85.427376,-133.58217,9388.285
85.404655,-133.65152,9393.566
85.38087,-133.7192,9399.352
85.35597,-133.7856,9404.556
85.330505,-133.85103,9408.905
85.30479,-133.9155,9412.13
85.27923,-133.97894,9414.503
85.2539,-134.04128,9416.071
85.228935,-134.10265,9416.642
85.20473,-134.1634,9416.276
85.18144,-134.22383,9414.701
85.15915,-134.28398,9412.17
85.13733,-134.34357,9408.65
85.116135,-134.40245,9405.079
85.09586,-134.46056,9401.898
85.07606,-134.51778,9399.046
85.05664,-134.57434,9396.271
85.037346,-134.63019,9393.649
85.01801,-134.68523,9391.422
84.998695,-134.73932,9389.54
84.97888,-134.79231,9387.8955
84.95889,-134.8443,9386.405
84.93842,-134.8953,9385.084
84.91824,-134.94566,9383.734
84.89814,-134.99538,9382.262
84.87802,-135.04428,9381.034
84.85783,-135.09235,9379.974
84.8377,-135.13963,9379.118
84.81784,-135.18625,9378.728
84.79806,-135.23201,9378.931
84.77817,-135.27698,9379.649
84.758026,-135.32121,9380.565
84.73764,-135.36476,9381.663
84.71696,-135.40758,9382.965
84.695915,-135.44965,9384.36
84.67487,-135.49104,9385.738
84.65372,-135.53174,9387.443
84.63255,-135.57176,9389.381
84.61156,-135.61124,9391.609
84.59052,-135.65018,9393.948
84.56923,-135.68866,9395.895
84.54748,-135.72665,9397.239
84.52576,-135.76422,9398.146
84.50442,-135.80113,9399.26
84.48346,-135.83725,9400.878
84.46255,-135.87271,9402.509
84.441666,-135.90794,9403.56
84.420784,-135.94284,9404.277
84.400345,-135.97739,9405.144
84.3801,-136.01129,9406.267
84.35961,-136.0444,9407.498
84.33881,-136.07695,9408.379
84.31785,-136.10933,9408.571
84.297295,-136.14162,9408.311
84.277084,-136.17375,9407.492
84.256966,-136.2053,9406.55
84.237045,-136.23611,9406.126
84.217674,-136.26643,9406.199
84.1988,-136.2965,9406.7705
84.17989,-136.32622,9407.582
84.16068,-136.3556,9408.233
84.14072,-136.38469,9408.107
84.12031,-136.4134,9407.395
84.10011,-136.44162,9406.398
84.08007,-136.46913,9405.657
84.06055,-136.49619,9405.206
84.04153,-136.52307,9404.622
84.022606,-136.54976,9403.878
84.003944,-136.57594,9403.2295
83.9859,-136.60037,9404.179
83.96827,-136.62134,9407.408
83.94988,-136.63768,9411.87
83.93063,-136.64952,9416.53
83.91037,-136.6572,9420.416
83.889534,-136.6614,9423.084
83.86835,-136.66255,9424.402
83.84693,-136.66101,9424.345
83.82598,-136.65747,9423.255
83.806046,-136.65283,9421.491
83.788345,-136.64833,9419.759
83.77246,-136.64421,9418.563
83.75684,-136.64038,9417.675
83.74126,-136.6368,9417.008
83.725266,-136.63306,9416.621
83.70889,-136.62904,9416.399
83.69212,-136.62459,9416.367
83.67499,-136.6196,9416.665
83.6579,-136.61415,9417.638
83.64078,-136.60841,9419.217
83.62371,-136.60268,9420.973
83.606445,-136.59703,9422.748
83.588715,-136.59116,9424.684
83.570724,-136.5851,9426.663
83.55254,-136.57889,9428.592
83.5341,-136.57245,9430.432
83.51564,-136.56586,9432.315
83.49728,-136.55923,9434.232
83.479355,-136.55269,9436.4375
83.4615,-136.546,9438.908
83.443436,-136.53914,9441.629
83.4251,-136.5322,9444.337
83.40659,-136.52527,9446.654
83.38776,-136.51839,9448.398
83.36874,-136.51155,9449.523
83.34979,-136.50478,9450.184
83.33131,-136.49802,9450.754
83.31311,-136.49129,9451.187
83.29547,-136.48463,9451.718
83.27809,-136.47804,9452.317
83.26103,-136.47148,9453.301
83.244095,-136.46475,9454.872
83.22687,-136.4578,9456.651
83.20912,-136.45073,9458.228
83.19102,-136.44356,9459.6045
83.17277,-136.43633,9460.784
83.15488,-136.42896,9462.373
83.13695,-136.42125,9464.359
83.11899,-136.41345,9466.194
83.100685,-136.40565,9467.607
83.08243,-136.39818,9468.503
83.06435,-136.39082,9469.057
83.04627,-136.38335,9469.484
83.02819,-136.3757,9469.9
83.010284,-136.36804,9470.213
82.992386,-136.3605,9470.181
82.97498,-136.35336,9469.864
82.957756,-136.34636,9469.319
82.94051,-136.33923,9468.856
82.92326,-136.332,9468.314
82.90601,-136.32472,9467.649
82.88898,-136.31744,9467.153
82.87224,-136.3101,9467.089
82.85582,-136.30257,9467.895
82.83949,-136.29468,9469.745
82.82275,-136.28639,9472.23
82.805336,-136.27802,9474.578
82.78714,-136.26959,9476.404
82.76847,-136.2613,9477.25
82.749405,-136.25296,9477.353
82.73051,-136.24449,9477.155
82.71215,-136.23596,9476.897
82.694435,-136.22752,9476.927
82.67748,-136.2193,9477.373
82.66103,-136.21126,9478.335
82.64457,-136.2032,9479.781
82.62765,-136.1949,9481.543
82.61022,-136.18639,9483.428
82.592,-136.17752,9485.058
82.57351,-136.1686,9486.496
82.55502,-136.1596,9487.768
82.53647,-136.1506,9488.722
82.51811,-136.14171,9489.362
82.50004,-136.13289,9490.03
82.48229,-136.12413,9490.866
82.46473,-136.11534,9491.906
82.44716,-136.10649,9493.005
82.42959,-136.09756,9494.317
82.411736,-136.08842,9495.795
82.39383,-136.07932,9497.221
82.37576,-136.07007,9498.567
82.3575,-136.06065,9499.964
82.339195,-136.05112,9501.456
82.32109,-136.04153,9503.235
82.303215,-136.03178,9505.69
82.28534,-136.02182,9508.617
82.26699,-136.01181,9511.487
82.24838,-136.0019,9514.012
82.229454,-135.99203,9516.132
82.21011,-135.98218,9517.438
82.190704,-135.97243,9518.068
82.171616,-135.96274,9518.358
82.15308,-135.95306,9518.792
82.13506,-135.94353,9519.333
82.117516,-135.93422,9519.707
82.099945,-135.92511,9519.671
82.082275,-135.91609,9519.413
82.064766,-135.9071,9519.306
82.04734,-135.89795,9519.244
82.029625,-135.88853,9519.203
82.01209,-135.87904,9519.504
81.99476,-135.86957,9520.284
81.97764,-135.8601,9521.409
81.96029,-135.85056,9522.692
81.94253,-135.84082,9523.99
81.92434,-135.83087,9525.329
81.906,-135.82086,9526.528
81.88774,-135.81076,9527.76
81.86952,-135.8004,9529.46
81.85123,-135.78984,9531.364
81.83304,-135.77936,9533.273
81.81466,-135.76901,9534.729
81.79607,-135.75882,9535.699
81.77726,-135.74873,9535.99
81.75857,-135.73874,9535.932
81.74036,-135.72868,9536.184
81.72241,-135.71848,9536.797
81.70473,-135.70833,9537.606
81.6874,-135.69832,9538.693
81.66986,-135.68832,9539.76
81.6521,-135.67831,9540.69
81.63394,-135.6681,9541.537
81.6157,-135.65771,9542.381
81.5972,-135.6471,9543.25
81.57873,-135.63655,9543.898
81.56063,-135.62622,9544.559
81.542656,-135.61589,9545.349
81.52471,-135.60562,9546.213
81.50688,-135.59537,9547.123
81.48883,-135.585,9548.033
81.47067,-135.5746,9548.883
81.45255,-135.56416,9549.873
81.43464,-135.55362,9551.304
81.416794,-135.54283,9553.264
81.398735,-135.53178,9555.652
81.38051,-135.52069,9558.072
81.361946,-135.50957,9560.302
81.34296,-135.49846,9561.973
81.323715,-135.48741,9563.053
81.304436,-135.47636,9563.702
81.28537,-135.46526,9564.273
81.26684,-135.45416,9565.272
81.24901,-135.44301,9567.177
81.23155,-135.4318,9570.132
81.21416,-135.42033,9574.193
81.19638,-135.40852,9579.218
81.177826,-135.39636,9584.456
81.15803,-135.38393,9588.973
81.13739,-135.37143,9592.554
81.11607,-135.359,9594.52
81.09458,-135.34688,9594.653
81.07366,-135.33536,9593.353
81.05377,-135.32443,9591.063
81.035095,-135.31407,9588.297
81.01758,-135.30435,9585.302
81.00103,-135.2952,9582.192
80.98501,-135.28625,9579.498
80.969124,-135.27724,9577.351
80.9534,-135.26816,9575.631
80.93723,-135.25867,9574.524
80.92086,-135.24875,9574.441
80.904396,-135.23839,9575.413
80.88755,-135.2276,9577.205
80.87013,-135.21649,9579.26
80.85207,-135.20512,9581.428
80.83343,-135.19351,9583.665
80.81456,-135.1818,9585.7705
80.795395,-135.16992,9587.61
80.776054,-135.1579,9589.363
80.756805,-135.14589,9591.044
80.737854,-135.13412,9592.519
80.71931,-135.1225,9594.38
80.70106,-135.11072,9596.931
80.682556,-135.09868,9599.749
80.66382,-135.08664,9602.468
80.64486,-135.07457,9605.061
80.62574,-135.06236,9607.838
80.60661,-135.04993,9611.067
80.5874,-135.03731,9614.334
80.5678,-135.02461,9616.982
80.54781,-135.01204,9618.902
80.52803,-134.99991,9620.01
80.50853,-134.98813,9620.277
80.48919,-134.97646,9620.066
80.47018,-134.96492,9619.538
80.45177,-134.95363,9619.253
80.43408,-134.9426,9619.448
80.41688,-134.93173,9620.002
80.39951,-134.92082,9620.682
80.3818,-134.90971,9621.64
80.36382,-134.89851,9622.509
80.34552,-134.88713,9623.3125
80.32694,-134.87552,9624.09
80.30841,-134.86378,9625.019
80.28995,-134.85193,9626.337
80.27179,-134.84007,9628.115
80.25362,-134.82817,9630.089
80.235146,-134.81613,9632.031
80.21634,-134.80406,9633.886
80.19753,-134.79199,9635.734
80.17856,-134.77966,9637.881
80.159386,-134.7673,9639.767
80.13998,-134.75525,9641.086
80.120605,-134.74399,9641.96
80.10151,-134.73376,9642.669
80.08258,-134.7246,9642.9375
80.06362,-134.71638,9642.752
80.04483,-134.70905,9642.457
80.02629,-134.7024,9642.197
80.007935,-134.69629,9641.842
79.98991,-134.6906,9641.573
79.97169,-134.68481,9641.356
79.95324,-134.67892,9640.907
79.93485,-134.67294,9640.497
79.91676,-134.6667,9640.514
79.89864,-134.65991,9641.234
79.880516,-134.65274,9642.715
79.86234,-134.64526,9644.72
79.84376,-134.63759,9646.77
79.824684,-134.6297,9648.816
79.80543,-134.6217,9650.889
79.785774,-134.61348,9652.669
79.765686,-134.6051,9653.877
79.745705,-134.59686,9654.777
79.726036,-134.58882,9655.528
79.706665,-134.58098,9656.007
79.687614,-134.57333,9656.287
79.668755,-134.56578,9656.53
79.64993,-134.55826,9656.809
79.631325,-134.5508,9657.245
79.612854,-134.54332,9657.836
79.59421,-134.53568,9658.436
79.575386,-134.5279,9659.13
79.556595,-134.52016,9659.79
79.537964,-134.5123,9660.908
79.519424,-134.50414,9662.959
79.50097,-134.49559,9666.1
79.48229,-134.48666,9669.922
79.463,-134.4775,9673.74
79.44305,-134.46826,9676.946
79.42254,-134.45901,9679.42
79.40164,-134.44975,9680.942
79.38079,-134.44058,9681.736
79.36016,-134.43149,9682.108
79.34024,-134.42278,9682.343
79.32111,-134.41446,9682.767
79.302574,-134.40645,9683.395
79.28433,-134.39848,9684.551
79.26606,-134.3903,9686.331
79.24756,-134.38174,9688.773
79.22875,-134.37285,9691.663
79.20946,-134.3635,9694.965
79.189804,-134.35382,9698.469
79.16986,-134.34392,9702.118
79.14966,-134.33382,9705.761
79.12923,-134.32364,9709.106
79.10853,-134.31339,9712.036
79.0879,-134.30333,9714.563
79.06733,-134.29343,9716.589
79.04689,-134.2838,9717.873
79.02647,-134.27446,9718.242
79.00647,-134.26556,9718.09
78.987,-134.25694,9717.917
78.96804,-134.24852,9717.812
78.9494,-134.24019,9717.789
78.9308,-134.23187,9717.726
78.9123,-134.22365,9717.794
78.89385,-134.21544,9717.989
78.87531,-134.20709,9718.216
78.856445,-134.1985,9718.242
78.837204,-134.18982,9717.819
78.817986,-134.18129,9716.997
78.79912,-134.17296,9716.142
78.780624,-134.16463,9715.84
78.76242,-134.1561,9716.326
78.7441,-134.1474,9717.137
78.72568,-134.13869,9718.064
78.707016,-134.12996,9719.061
78.688156,-134.12108,9720.245
78.669014,-134.11191,9721.478
78.64946,-134.10245,9722.449
78.62978,-134.09288,9723.304
78.61027,-134.08339,9724.251
78.59101,-134.07402,9725.184
78.57198,-134.06474,9726.184
78.55283,-134.05534,9727.347
78.533676,-134.04594,9728.6
78.514404,-134.03654,9729.692
78.49508,-134.0272,9730.501
78.47575,-134.01782,9731.255
78.45635,-134.0083,9732.065
78.4371,-133.99884,9732.89
78.41809,-133.98935,9734.016
78.399155,-133.97969,9735.693
78.380165,-133.9699,9737.556
78.36105,-133.96005,9739.533
78.34161,-133.95009,9741.164
78.32184,-133.94006,9742.465
78.30193,-133.93004,9743.515
78.28214,-133.92006,9744.434
78.26236,-133.91013,9744.928
78.24258,-133.90036,9744.955
78.22325,-133.89096,9745.091
78.20442,-133.88171,9745.486
78.18569,-133.87239,9746.225
78.16705,-133.863,9747.172
78.147995,-133.85342,9747.897
