Latitude,Longitude,Altitude (m)
-46.123848,111.54145,11453.766
-46.097828,111.550766,11459.059
-46.07344,111.56187,11456.703
-46.048588,111.570786,11456.29
-46.023064,111.5795,11459.897
-45.998043,111.589386,11460.98
-45.973183,111.59892,11460.87
-45.94741,111.60767,11465.18
-45.92127,111.61722,11471.6045
-45.89648,111.62806,11471.804
-45.870705,111.636696,11476.667
-45.84612,111.6468,11475.957
-45.82079,111.655136,11478.717
-45.796,111.66465,11479.014
-45.77087,111.67353,11480.359
-45.744987,111.68241,11485.458
-45.720127,111.69279,11485.908
-45.695004,111.70189,11487.409
-45.669334,111.71083,11491.586
-45.64374,111.720436,11495.787
-45.618587,111.73031,11497.377
-45.59357,111.739586,11498.338
-45.56934,111.748985,11495.4
-45.546642,111.758194,11484.757
-45.52348,111.76531,11475.843
-45.49829,111.772064,11476.265
-45.472874,111.78168,11477.903
-45.446896,111.791824,11482.247
-45.422215,111.80314,11480.956
-45.397938,111.8126,11478.413
-45.37312,111.82082,11479.089
-45.347332,111.829185,11484.259
-45.320683,111.8385,11493.028
-45.29363,111.84869,11504.201
-45.268562,111.86024,11506.716
-45.24461,111.869606,11503.965
-45.22217,111.87794,11493.8545
-45.197166,111.88307,11495.16
-45.17264,111.892044,11493.741
-45.145508,111.899864,11504.346
-45.120434,111.9121,11505.906
-45.095657,111.921875,11506.703
-45.072792,111.9317,11499.099
-45.04867,111.93835,11496.926
-45.02442,111.946465,11494.924
-45.00109,111.95575,11487.203
-44.976593,111.96332,11485.486
-44.95053,111.97151,11492.047
-44.92427,111.981735,11500.931
-44.8997,111.99334,11501.318
-44.87585,112.00266,11498.377
-44.85079,112.00988,11501.4795
-44.82585,112.01986,11502.692
-44.799927,112.03048,11506.95
-44.77451,112.04277,11508.981
-44.750603,112.05522,11504.976
-44.725166,112.06471,11509.912
-44.70011,112.0762,11513.8545
-44.67551,112.0878,11514.459
-44.652348,112.09937,11507.4795
-44.6258,112.10683,11517.533
-44.60041,112.11914,11522.432
-44.5757,112.13092,11523.041
-44.550766,112.14124,11524.546
-44.52486,112.15083,11531.292
-44.49997,112.16225,11533.803
-44.478054,112.1744,11520.318
-44.46246,112.18606,11473.304
-44.446407,112.189064,11425.867
-44.42796,112.191475,11389.636
-44.40841,112.19861,11355.564
-44.386963,112.207886,11328.735
-44.364685,112.21948,11307.409
-44.34135,112.231255,11294.617
-44.320427,112.24522,11272.248
-44.29888,112.25522,11252.301
-44.276127,112.26425,11237.237
-44.253727,112.274475,11220.779
-44.23127,112.284355,11204.347
-44.209934,112.29483,11181.736
-44.187927,112.303276,11162.134
-44.161537,112.3099,11164.903
-44.13782,112.32375,11156.204
-44.117012,112.336586,11131.421
-44.09634,112.34475,11105.606
-44.074894,112.351425,11083.967
-44.054375,112.36019,11056.541
-44.034485,112.369,11023.696
-44.014305,112.377075,10990.645
-43.99278,112.38473,10964.887
-43.97049,112.39409,10944.618
-43.946712,112.40412,10931.584
-43.924423,112.41669,10911.932
-43.9025,112.42728,10891.097
-43.879513,112.43604,10876.334
-43.855785,112.44537,10865.29
-43.83236,112.4559,10852.184
-43.803024,112.46235,10868.453
-43.773693,112.4755,10889.072
-43.747066,112.49083,10898.46
-43.721134,112.5025,10905.115
-43.694958,112.51167,10913.335
-43.670074,112.52135,10915.138
-43.646095,112.530365,10910.816
-43.621357,112.53805,10908.36
-43.595398,112.5461,10911.873
-43.56894,112.55593,10920.141
-43.541935,112.56677,10931.945
-43.51728,112.57977,10932.464
-43.49442,112.59061,10923.736
-43.468132,112.59654,10931.66
-43.44272,112.60707,10935.974
-43.417255,112.61753,10939.14
-43.392696,112.628525,10937.735
-43.36865,112.63839,10934.146
-43.345272,112.647896,10927.405
-43.321365,112.65641,10922.45
-43.29602,112.664955,10923.433
-43.268894,112.674385,10933.725
-43.244865,112.68817,10930.723
-43.22123,112.69851,10924.803
-43.196255,112.70655,10925.809
-43.17121,112.71609,10927.268
-43.14524,112.725624,10932.7705
-43.11792,112.73558,10945.219
-43.093452,112.74886,10944.729
-43.067978,112.75784,10949.317
-43.044624,112.76869,10944.146
-43.021736,112.77748,10934.007
-42.996464,112.78395,10934.743
-42.971607,112.79391,10934.087
-42.94398,112.802444,10947.316
-42.917236,112.815,10958.555
-42.89248,112.82788,10960.767
-42.869984,112.839066,10950.763
-42.846786,112.84611,10943.333
-42.820934,112.85227,10947.842
-42.794685,112.86211,10954.477
-42.769783,112.87414,10954.863
-42.745644,112.88489,10951.544
-42.721542,112.89404,10949.341
-42.69639,112.90243,10952.4
-42.670795,112.912094,10957.109
-42.645767,112.9229,10958.343
-42.62086,112.93289,10959.403
-42.598274,112.94387,10949.614
-42.574448,112.9512,10944.648
-42.548985,112.95886,10947.401
-42.52211,112.96813,10957.771
-42.497063,112.98077,10959.993
-42.470562,112.99011,10970.174
-42.446503,113.00224,10969.358
-42.42255,113.0113,10966.926
-42.39816,113.01946,10966.057
-42.373528,113.02813,10965.217
-42.349144,113.03751,10963.045
-42.324177,113.0465,10964.015
-42.299065,113.05618,10966.596
-42.274055,113.06629,10968.773
-42.250298,113.07696,10965.133
-42.224747,113.08483,10969.534
-42.200134,113.09523,10970.072
-42.17575,113.10487,10969.015
-42.15153,113.11422,10966.628
-42.12679,113.122925,10966.471
-42.102432,113.132515,10964.696
-42.078114,113.14193,10962.26
-42.052677,113.15054,10965.387
-42.025116,113.15916,10980.156
-41.999454,113.17183,10987.444
-41.97436,113.18268,10991.346
-41.949245,113.19194,10995.437
-41.92532,113.20155,10993.348
-41.90029,113.209015,10995.786
-41.875004,113.21784,10999.042
-41.8513,113.22842,10993.75
-41.825584,113.23578,10998.622
-41.80107,113.246376,10998.862
-41.777287,113.25638,10994.383
-41.753387,113.26515,10989.797
-41.730408,113.274475,10980.002
-41.70555,113.28157,10978.633
-41.679485,113.29039,10984.402
-41.65262,113.30069,10995.33
-41.62789,113.31353,10996.113
-41.60296,113.32297,10998.598
-41.579174,113.33275,10995.098
-41.555603,113.34107,10989.004
-41.530155,113.34785,10991.453
-41.505898,113.35809,10987.53
-41.482014,113.367485,10981.483
-41.455948,113.37484,10987.298
-41.42951,113.384796,10996.858
-41.405247,113.397156,10995.292
-41.38074,113.40626,10994.445
-41.35646,113.41509,10992.228
-41.332775,113.42395,10986.549
-41.308006,113.43152,10985.849
-41.282825,113.440384,10986.873
-41.257717,113.45009,10987.871
-41.231583,113.45907,10995.678
-41.205948,113.469696,11002.2
-41.18109,113.480255,11004.441
-41.15662,113.4896,11004.675
-41.131012,113.49726,11010.604
-41.105923,113.5068,11013.956
-41.083256,113.51756,11004.141
-41.058743,113.52387,11002.231
-41.034565,113.53253,10999.005
-41.010242,113.54129,10996.401
-40.984875,113.5498,10999.256
-40.960194,113.56025,10998.955
-40.935356,113.56962,10999.975
-40.9108,113.57913,11000.343
-40.884224,113.58691,11011.007
-40.859066,113.59819,11014.705
-40.836105,113.60905,11006.875
-40.810963,113.61516,11009.027
-40.786495,113.624146,11008.223
-40.7609,113.63213,11012.825
-40.73579,113.64216,11014.974
-40.712234,113.65271,11008.757
-40.68849,113.660805,11003.05
-40.662865,113.667595,11007.649
-40.637066,113.67712,11013.328
-40.61235,113.688034,11013.109
-40.587124,113.696915,11016.123
-40.56219,113.706276,11018.1455
-40.53872,113.716194,11012.612
-40.51561,113.7245,11003.356
-40.48826,113.72913,11015.263
-40.461845,113.7402,11024.646
-40.436455,113.75153,11029.861
-40.412476,113.7622,11027.733
-40.388817,113.770515,11023.138
-40.364704,113.77768,11020.441
-40.3396,113.78511,11021.88
-40.314274,113.794136,11023.7
-40.288734,113.80344,11027.176
-40.26797,113.816414,11006.604
-40.250927,113.82583,10961.924
-40.230804,113.82727,10928.263
-40.210354,113.83291,10893.082
-40.188454,113.83971,10862.487
-40.16613,113.84908,10833.715
-40.142735,113.85862,10811.809
-40.119026,113.869194,10794.099
-40.09664,113.88098,10770.732
-40.075924,113.89174,10736.392
-40.05313,113.897835,10710.03
-40.03002,113.90583,10685.835
-40.005688,113.91514,10666.128
-39.98249,113.92762,10640.886
-39.95946,113.93883,10615.57
-39.937447,113.95009,10586.606
-39.915714,113.96018,10556.093
-39.893665,113.96961,10525.929
-39.870373,113.97851,10501.47
-39.84678,113.98877,10480.079
-39.824127,114.00036,10454.735
-39.802025,114.011024,10426.496
-39.780956,114.021355,10391.581
-39.75853,114.02901,10362.012
-39.734642,114.03723,10339.553
-39.71078,114.04763,10317.855
-39.686264,114.05786,10300.385
-39.662354,114.06906,10281.728
-39.63941,114.080025,10258.592
-39.616447,114.0894,10234.399
-39.592632,114.097855,10213.396
-39.569668,114.10791,10187.536
-39.546455,114.11692,10162.432
-39.522232,114.12553,10142.807
-39.498222,114.135635,10123.178
-39.474747,114.1462,10101.561
-39.451,114.15589,10081.16
-39.428986,114.166855,10051.762
-39.407017,114.17569,10020.069
-39.383686,114.183304,9993.698
-39.35977,114.192215,9970.241
-39.335167,114.20173,9951.493
-39.311108,114.21268,9932.035
-39.287792,114.22362,9909.167
-39.263615,114.23283,9889.666
-39.240147,114.2432,9866.296
-39.216927,114.25302,9839.623
-39.19451,114.26287,9807.327
-39.170494,114.270454,9781.714
-39.146526,114.280045,9756.418
-39.11499,114.284164,9771.62
-39.082184,114.29611,9804.367
-39.05357,114.313805,9825.107
-39.027348,114.328064,9836.145
-39.002605,114.33878,9837.566
-38.977642,114.34602,9836.037
-38.95283,114.35328,9830.05
-38.926685,114.35983,9828.519
-38.90036,114.368546,9828.869
-38.874428,114.378494,9831.597
-38.84749,114.38811,9841.953
-38.821957,114.400185,9847.072
-38.79689,114.41092,9849.861
-38.77102,114.42013,9855.964
-38.744987,114.42978,9863.48
-38.72199,114.442024,9855.426
-38.69816,114.45011,9848.512
-38.672737,114.45755,9848.572
-38.64684,114.46668,9852.539
-38.621426,114.47742,9855.932
-38.59615,114.48811,9858.96
-38.570667,114.49818,9863.711
-38.54743,114.50993,9857.605
-38.523773,114.51869,9850.785
-38.499496,114.52713,9844.329
-38.47436,114.535545,9841.9
-38.449673,114.54571,9838.152
-38.423985,114.55493,9840.111
-38.398407,114.56539,9843.19
-38.373642,114.57644,9843.129
-38.348267,114.58588,9846.0625
-38.323643,114.59635,9844.777
-38.29887,114.60551,9843.908
-38.274975,114.61551,9838.02
-38.249924,114.62364,9836.93
-38.224407,114.63268,9838.948
-38.199142,114.64276,9841.225
-38.173187,114.652245,9847.994
-38.147015,114.66224,9857.599
-38.12371,114.6746,9853.87
-38.100376,114.68348,9847.547
-38.07618,114.69115,9843.568
-38.05082,114.69888,9844.923
-38.02616,114.70898,9844.162
-37.99957,114.717224,9854.209
-37.973133,114.72789,9866.734
-37.94777,114.73934,9876.459
-37.925312,114.751656,9871.032
-37.901733,114.75921,9866.637
-37.87794,114.76713,9861.44
-37.85341,114.77499,9858.956
-37.82836,114.7837,9859.806
-37.802383,114.792786,9866.748
-37.778164,114.80447,9867.649
-37.75463,114.81482,9864.6875
-37.731586,114.82433,9857.39
-37.70769,114.83223,9851.795
-37.68176,114.8393,9856.627
-37.6561,114.8494,9862.269
-37.630898,114.86,9867.541
-37.607925,114.87177,9862.128
-37.58433,114.88001,9858.049
-37.560364,114.88822,9854.362
-37.53619,114.89677,9850.793
-37.51193,114.90577,9847.282
-37.485275,114.9131,9857.178
-37.462196,114.926216,9852.33
-37.439182,114.93551,9845.341
-37.413864,114.942276,9848.708
-37.389297,114.95216,9848.917
-37.364788,114.96149,9849.228
-37.339764,114.97044,9852.264
-37.316128,114.98101,9848.605
-37.292507,114.989845,9843.9375
-37.2671,114.996925,9848.422
-37.241035,115.00589,9856.752
-37.215645,115.016335,9863.85
-37.19337,115.028694,9855.456
-37.170074,115.03622,9848.74
-37.145535,115.04318,9847.282
-37.119106,115.05041,9856.137
-37.090763,115.05891,9877.942
-37.066364,115.07321,9884.204
-37.04324,115.08396,9883.299
-37.020008,115.09222,9880.4
-36.99708,115.10024,9873.138
-36.972828,115.10693,9869.539
-36.949623,115.11616,9860.59
-36.926434,115.12482,9850.795
-36.900826,115.13163,9854.427
-36.87587,115.142136,9858.205
-36.85329,115.15444,9849.664
-36.82841,115.161514,9851.224
-36.8036,115.17073,9853.452
-36.780704,115.18158,9845.615
-36.757545,115.189835,9837.066
-36.73241,115.19656,9837.027
-36.707443,115.20566,9838.06
-36.682716,115.21518,9840.065
-36.656994,115.22386,9848.068
-36.632336,115.2345,9851.893
-36.607895,115.24373,9855.716
-36.583225,115.252426,9860.221
-36.559036,115.26156,9861.393
-36.53529,115.27034,9859.539
-36.51185,115.2788,9855.358
-36.488964,115.287476,9846.837
-36.464893,115.294525,9843.289
-36.440067,115.30257,9844.591
-36.416813,115.31334,9838.603
-36.392605,115.32158,9837.074
-36.36713,115.32962,9843.209
-36.34336,115.34066,9841.991
-36.317997,115.34839,9848.489
-36.29351,115.35842,9851.337
-36.26959,115.36783,9850.651
-36.246254,115.37672,9846.218
-36.22228,115.38431,9843.507
-36.19882,115.39309,9837.135
-36.17582,115.40173,9827.812
-36.151287,115.4088,9825.718
-36.126766,115.41777,9824.639
-36.10225,115.42699,9825.244
-36.076565,115.435455,9832.757
-36.05049,115.444855,9844.52
-36.026432,115.45626,9847.641
-36.0031,115.46561,9845.683
-35.97828,115.472244,9849.309
-35.954784,115.48152,9845.717
-35.92976,115.48821,9849.167
-35.904556,115.49675,9854.819
-35.879433,115.5059,9861.818
-35.85591,115.51635,9862.31
-35.83163,115.52429,9865.922
-35.80711,115.53266,9870.433
-35.78187,115.54066,9879.216
-35.758915,115.55156,9877.222
-35.73604,115.559814,9872.499
-35.712482,115.56687,9870.567
-35.689133,115.57511,9867.271
-35.663883,115.581856,9874.121
-35.641117,115.59331,9869.719
-35.61685,115.60062,9872.791
-35.593033,115.60974,9875.052
-35.570095,115.61919,9872.678
-35.545654,115.626205,9876.686
-35.52206,115.63557,9876.823
-35.497818,115.6434,9880.346
-35.474678,115.65297,9878.419
-35.450497,115.6602,9881.643
-35.42666,115.66906,9882.867
-35.403557,115.6781,9880.469
-35.37958,115.68554,9881.678
-35.35703,115.6952,9875.034
-35.33363,115.702354,9871.631
-35.309128,115.70964,9873.732
-35.282757,115.71688,9887.713
-35.258797,115.72878,9892.488
-35.236305,115.739075,9889.495
-35.214638,115.746994,9880.004
-35.19123,115.7495,9878.871
-35.165997,115.75053,9889.368
-35.146255,115.75759,9872.258
-35.121284,115.75148,9880.156
-35.09805,115.75201,9881.622
-35.07647,115.75261,9872.438
-35.05405,115.75038,9863.192
-35.0299,115.747345,9860.407
-35.00288,115.74403,9874.364
-34.97725,115.74615,9886.972
-34.951572,115.74725,9903.096
-34.929516,115.75124,9900.77
-34.90699,115.74955,9898.898
-34.88511,115.74875,9889.547
-34.86054,115.74475,9890.818
-34.83598,115.74431,9893.672
-34.812077,115.74524,9895.404
-34.787388,115.74487,9904.174
-34.76403,115.74691,9907.73
-34.741737,115.74815,9905.039
-34.717747,115.746315,9908.398
-34.69435,115.74668,9908.494
-34.670586,115.746216,9909.569
-34.647217,115.74639,9909.333
-34.623882,115.746414,9908.193
-34.600677,115.74649,9905.85
-34.57599,115.745155,9911.42
-34.552097,115.74649,9913.678
-34.52895,115.747536,9911.852
-34.5055,115.74718,9910.978
-34.48166,115.74671,9911.458
-34.45891,115.74768,9905.749
-34.434853,115.746185,9905.61
-34.411327,115.746704,9903.065
-34.388218,115.747116,9898.253
-34.36476,115.74675,9895.221
-34.33818,115.74411,9909.682
-34.313087,115.74685,9920.883
-34.290123,115.74994,9922.687
-34.266453,115.749214,9927.385
-34.24358,115.74958,9926.705
-34.220905,115.74892,9923.448
-34.197575,115.7476,9921.663
-34.17441,115.74736,9918.421
-34.150146,115.74605,9922.136
-34.12811,115.748024,9917.052
-34.111153,115.74978,9885.11
-34.09232,115.73947,9861.049
-34.0709,115.72574,9853.8955
-34.04955,115.71594,9848.898
-34.027264,115.706635,9850.124
-34.00327,115.69761,9863.216
-33.977776,115.68961,9889.5205
-33.95508,115.68594,9907.085
-33.93253,115.67871,9923.983
-33.9122,115.67237,9926.821
-33.900066,115.66981,9879.461
-33.892036,115.660484,9791.341
-33.891994,115.65311,9633.631
-33.89272,115.63739,9436.777
-33.881706,115.61262,9272.207
-33.864376,115.60068,9132.372
-33.844555,115.59882,9010.549
-33.8227,115.600426,8911.335
-33.803486,115.606636,8809.888
-33.7852,115.60914,8704.561
-33.764847,115.606064,8604.572
-33.74292,115.601776,8505.151
-33.719234,115.59573,8411.54
-33.6992,115.59392,8301.017
-33.678543,115.58776,8188.6543
-33.6558,115.58006,8083.5396
-33.630444,115.572365,7992.9653
-33.60958,115.57207,7884.709
-33.588127,115.56729,7777.114
-33.564037,115.560616,7681.629
-33.540016,115.556725,7588.717
-33.51953,115.556145,7481.368
-33.497543,115.55098,7377.6294
-33.47472,115.546364,7276.825
-33.449512,115.54017,7189.6836
-33.429844,115.54169,7080.8804
-33.410183,115.53862,6966.91
-33.38786,115.53297,6861.51
-33.363968,115.5285,6764.0176
-33.34182,115.52755,6661.7744
-33.319435,115.52508,6562.163
-33.295937,115.52172,6470.704
-33.272404,115.51929,6383.8315
-33.248604,115.516464,6303.1636
-33.21254,115.500336,6290.537
-33.171505,115.487595,6334.9043
-33.133896,115.480125,6405.905
-33.106308,115.47827,6461.7754
-33.084183,115.472664,6499.1333
-33.06563,115.46575,6510.587
-33.0442,115.45251,6520.731
-33.021675,115.44055,6528.99
-33.00073,115.43127,6530.3037
-32.98189,115.42319,6525.727
-32.961143,115.41242,6531.8057
-32.94103,115.40497,6537.57
-32.921528,115.398026,6541.4995
-32.902504,115.39116,6543.3257
-32.88434,115.38501,6539.1777
-32.865826,115.37764,6534.206
-32.848026,115.371605,6522.893
-32.827812,115.36251,6520.1924
-32.806263,115.35407,6526.1187
-32.786133,115.348305,6529.942
-32.766212,115.341446,6535.121
-32.746693,115.33477,6539.2363
-32.72735,115.32783,6541.7163
-32.708317,115.32095,6541.369
-32.690163,115.31473,6534.7583
-32.67173,115.307594,6526.2363
-32.652233,115.29955,6521.364
-32.63468,115.29486,6506.456
-32.642242,115.31662,6356.814
-32.65917,115.32925,6103.0366
-32.65878,115.320564,5855.734
-32.661022,115.33641,5541.0093
-32.63599,115.32337,5321.4956
-32.597996,115.321014,5187.013
-32.567303,115.33674,5065.15
-32.549927,115.35859,4914.504
-32.53535,115.37423,4746.995
-32.518265,115.389755,4563.157
-32.501175,115.41218,4349.8945
-32.475277,115.42571,4164.4614
-32.442772,115.440285,4019.3884
-32.412872,115.46343,3888.8562
-32.389725,115.49312,3748.6284
-32.374325,115.52959,3576.1501
-32.359234,115.5614,3397.741
-32.33813,115.58378,3253.5808
-32.31859,115.61551,3107.8916
-32.297306,115.63662,2993.4082
-32.27465,115.650505,2917.7292
-32.25665,115.67268,2829.728
-32.244774,115.69991,2702.6543
-32.2292,115.710014,2594.1743
-32.210415,115.720245,2496.2317
-32.189667,115.72963,2406.749
-32.166252,115.72988,2349.1921
-32.14118,115.7272,2319.9636
-32.11618,115.723816,2312.3794
-32.092606,115.721375,2319.361
-32.07194,115.72282,2329.4883
-32.05523,115.72646,2341.6663
-32.043674,115.73304,2353.2773
-32.037605,115.74305,2358.3867
-32.03896,115.76074,2339.1868
-32.047493,115.78364,2291.3538
-32.061134,115.80984,2217.5112
-32.07764,115.83829,2121.6348
-32.09517,115.86821,2007.2491
-32.11229,115.89897,1877.1256
-32.127876,115.9301,1733.3966
-32.140663,115.96122,1577.8029
-32.14974,115.99286,1408.9769
-32.148216,115.98762,1322.3804
-32.136536,115.96721,1304.5507
-32.1153,115.93308,1336.929
-32.08661,115.88381,1419.5226
-32.055878,115.84689,1491.1136
-32.000782,115.69613,1871.563
-31.945232,115.64232,2185.9976
-31.90561,115.63062,2373.8223
-31.89249,115.64717,2456.506
-31.896286,115.677,2476.5789
-31.907347,115.70943,2461.5469
-31.919426,115.730156,2451.63
-31.93396,115.74909,2433.2869
-31.94967,115.76057,2412.2227
-31.96779,115.76902,2384.2468
-31.9771,115.76518,2372.6753
-31.980883,115.75192,2398.0737
-31.985493,115.75045,2416.6602
-31.992609,115.75394,2424.8806
-32.00365,115.764534,2414.699
-32.015575,115.77285,2405.3137
-32.02648,115.77837,2405.7986
-32.037544,115.78435,2407.8865
-32.049294,115.78842,2410.4207
-32.061813,115.7907,2413.2383
-32.07468,115.792885,2412.5408
-32.086483,115.792915,2413.2683
-32.09821,115.79414,2410.9114
-32.10952,115.79424,2410.2134
-32.120747,115.79395,2412.4675
-32.132343,115.79513,2412.382
-32.14434,115.79694,2408.7297
-32.15671,115.79973,2401.0618
-32.17037,115.81028,2374.2979
-32.18186,115.81936,2350.5286
-32.188877,115.825806,2346.7046
-32.19168,115.83173,2361.019
-32.19369,115.843315,2368.79
-32.19438,115.85321,2372.8943
-32.193092,115.86123,2373.5708
-32.19006,115.869,2363.4744
-32.18399,115.86991,2356.0083
-32.17491,115.86507,2356.1812
-32.16597,115.86232,2345.0544
-32.154644,115.85163,2345.9458
-32.140526,115.8395,2360.883
-32.125496,115.83204,2374.5032
-32.11093,115.82672,2385.1428
-32.097305,115.82377,2391.4055
-32.08463,115.82309,2391.8623
-32.07272,115.82336,2388.6995
