Latitude,Longitude,Altitude (m)
-12.7084255,-57.176903,12299.011
-12.69378,-57.189747,12315.022
-12.678872,-57.202705,12332.678
-12.663827,-57.215683,12352.146
-12.64848,-57.228844,12372.956
-12.632754,-57.24231,12394.431
-12.61681,-57.255974,12416.226
-12.600625,-57.269905,12437.589
-12.584371,-57.28396,12458.576
-12.568013,-57.298183,12478.945
-12.551602,-57.312546,12498.7705
-12.53525,-57.32691,12518.265
-12.518997,-57.341175,12537.595
-12.502845,-57.35535,12556.801
-12.486627,-57.369587,12575.661
-12.470419,-57.383842,12594.274
-12.454264,-57.39806,12612.753
-12.438201,-57.412186,12631.484
-12.422191,-57.42622,12650.419
-12.406142,-57.44027,12669.48
-12.389698,-57.454727,12687.458
-12.372642,-57.46998,12702.869
-12.355329,-57.485775,12715.579
-12.33786,-57.50203,12725.544
-12.320276,-57.518673,12732.776
-12.302715,-57.535534,12737.408
-12.285369,-57.55239,12739.9795
-12.268131,-57.56929,12740.442
-12.251127,-57.5861,12739.258
-12.234502,-57.602615,12737.184
-12.218229,-57.6188,12735.059
-12.202067,-57.63484,12732.944
-12.186016,-57.650734,12730.81
-12.170254,-57.66631,12729.397
-12.154562,-57.681713,12728.69
-12.138954,-57.696964,12728.824
-12.123276,-57.712196,12729.44
-12.107264,-57.72776,12729.77
-12.09101,-57.743626,12729.35
-12.07483,-57.75951,12728.6
-12.05882,-57.77524,12727.99
-12.042955,-57.7908,12727.89
-12.027098,-57.80629,12728.061
-12.011308,-57.821663,12728.409
-11.99548,-57.837063,12728.788
-11.979588,-57.852524,12728.913
-11.9637375,-57.86797,12729.043
-11.947868,-57.883442,12729.237
-11.932013,-57.8989,12729.556
-11.916086,-57.91443,12729.626
-11.900308,-57.92981,12729.912
-11.884694,-57.944984,12730.732
-11.86907,-57.960102,12731.998
-11.853334,-57.97529,12733.305
-11.837405,-57.99068,12734.225
-11.82142,-58.006184,12734.845
-11.805476,-58.021675,12735.32
-11.789511,-58.037205,12735.648
-11.773418,-58.05287,12735.459
-11.757177,-58.068756,12734.517
-11.741002,-58.084663,12732.962
-11.725021,-58.100407,12731.304
-11.709168,-58.11603,12729.782
-11.693346,-58.13158,12728.3545
-11.677524,-58.14712,12726.959
-11.661836,-58.162514,12725.849
-11.646235,-58.177776,12725.138
-11.630561,-58.19307,12724.531
-11.614766,-58.20849,12723.796
-11.598893,-58.224007,12722.845
-11.58295,-58.239635,12721.506
-11.567016,-58.255295,12719.807
-11.550993,-58.271088,12717.51
-11.535014,-58.2869,12714.827
-11.519196,-58.30258,12712.16
-11.503562,-58.31804,12709.794
-11.487994,-58.333397,12707.688
-11.472579,-58.34855,12706.216
-11.456981,-58.363823,12704.69
-11.441288,-58.379208,12702.95
-11.425697,-58.3945,12701.451
-11.410147,-58.40974,12700.26
-11.394643,-58.424892,12699.577
-11.379215,-58.439903,12699.489
-11.363672,-58.45498,12699.544
-11.348055,-58.47011,12699.613
-11.332436,-58.48524,12699.873
-11.317028,-58.500126,12700.878
-11.3018265,-58.514687,12703.347
-11.286675,-58.52903,12707.152
-11.271262,-58.543484,12711.357
-11.255524,-58.55825,12715.291
-11.239475,-58.573395,12718.388
-11.223198,-58.588905,12720.366
-11.206786,-58.604683,12721.314
-11.190395,-58.620567,12721.446
-11.174172,-58.636368,12721.203
-11.158154,-58.651978,12720.85
-11.142221,-58.66749,12720.277
-11.126407,-58.682873,12719.691
-11.11071,-58.698128,12719.441
-11.095186,-58.71314,12719.904
-11.079648,-58.728077,12720.929
-11.06386,-58.74322,12721.81
-11.047887,-58.758587,12722.215
-11.031836,-58.774097,12722.122
-11.015822,-58.789635,12721.72
-10.999696,-58.805332,12720.716
-10.983444,-58.82123,12718.919
-10.967332,-58.837074,12716.749
-10.951496,-58.852665,12714.834
-10.935765,-58.86809,12713.138
-10.920105,-58.883404,12711.7705
-10.904477,-58.89864,12710.84
-10.888939,-58.913715,12710.532
-10.87339,-58.928726,12710.743
-10.857766,-58.943752,12711.2705
-10.841863,-58.959038,12711.546
-10.825767,-58.974575,12711.34
-10.80977,-58.990067,12711.062
-10.793848,-59.005493,12710.867
-10.777958,-59.020863,12710.898
-10.762027,-59.036243,12710.947
-10.746102,-59.05161,12711.033
-10.730169,-59.066982,12711.084
-10.714186,-59.0824,12711.015
-10.698217,-59.097813,12710.966
-10.682349,-59.113106,12711.362
-10.666472,-59.12836,12712.087
-10.650568,-59.1436,12712.955
-10.634577,-59.15891,12713.779
-10.6186,-59.174202,12714.679
-10.602574,-59.18954,12715.597
-10.586523,-59.204914,12716.484
-10.570433,-59.220333,12717.312
-10.554331,-59.235764,12718.102
-10.538242,-59.251183,12718.863
-10.522208,-59.266544,12719.659
-10.506056,-59.282013,12720.189
-10.4898205,-59.297607,12720.31
-10.473479,-59.31337,12719.824
-10.457083,-59.329266,12718.629
-10.440618,-59.345333,12716.619
-10.424173,-59.361496,12713.895
-10.40791,-59.377563,12710.922
-10.392033,-59.393257,12708.56
-10.376401,-59.408623,12707.084
-10.360814,-59.423817,12706.296
-10.345089,-59.439064,12705.774
-10.329273,-59.45439,12705.345
-10.313467,-59.469685,12705.222
-10.297657,-59.48496,12705.466
-10.281711,-59.50033,12705.793
-10.265691,-59.51579,12706.109
-10.249624,-59.531296,12706.306
-10.233582,-59.54679,12706.371
-10.217573,-59.562263,12706.446
-10.201625,-59.577656,12706.72
-10.185567,-59.593143,12706.899
-10.169498,-59.60865,12707.004
-10.153412,-59.62419,12706.931
-10.137322,-59.639755,12706.713
-10.121244,-59.65532,12706.485
-10.105085,-59.67097,12705.983
-10.08893,-59.686646,12705.301
-10.072882,-59.70223,12704.731
-10.056835,-59.7178,12704.172
-10.040786,-59.73336,12703.573
-10.024787,-59.74887,12703.177
-10.008794,-59.764343,12702.9
-9.992715,-59.779892,12702.559
-9.976559,-59.79553,12702.014
-9.9603815,-59.811214,12701.278
-9.944297,-59.826817,12700.76
-9.928241,-59.842354,12700.428
-9.912254,-59.8578,12700.371
-9.896337,-59.87312,12700.779
-9.880589,-59.888187,12702.0
-9.864948,-59.903038,12704.104
-9.849044,-59.918056,12706.283
-9.832794,-59.933426,12707.788
-9.816301,-59.94916,12708.28
-9.7997055,-59.965157,12707.744
-9.78347,-59.98091,12707.193
-9.767428,-59.996452,12706.95
-9.751595,-60.01172,12707.248
-9.735893,-60.026764,12708.105
-9.720264,-60.041653,12709.407
-9.7044735,-60.056644,12710.588
-9.68845,-60.07189,12711.329
-9.672305,-60.08734,12711.566
-9.65607,-60.102966,12711.243
-9.639672,-60.118855,12710.035
-9.623254,-60.13489,12707.785
-9.607221,-60.15064,12705.633
-9.591519,-60.166016,12704.081
-9.575931,-60.18119,12703.076
-9.560408,-60.196205,12702.578
-9.544754,-60.211273,12702.257
-9.528953,-60.22649,12701.799
-9.513249,-60.24161,12701.634
-9.497559,-60.256683,12701.829
-9.48177,-60.271812,12702.248
-9.465842,-60.287067,12702.601
-9.44993,-60.302315,12702.796
-9.434032,-60.317562,12702.955
-9.418128,-60.332825,12703.122
-9.402079,-60.348236,12702.896
-9.385941,-60.363785,12702.246
-9.369944,-60.379246,12701.653
-9.354108,-60.39453,12701.31
-9.338314,-60.409725,12701.246
-9.322378,-60.425034,12701.034
-9.306422,-60.440372,12700.733
-9.290533,-60.45566,12700.532
-9.274632,-60.47094,12700.367
-9.258637,-60.486313,12700.01
-9.242642,-60.501713,12699.621
-9.226614,-60.51715,12699.093
-9.210691,-60.532497,12698.606
-9.194775,-60.547817,12698.099
-9.178917,-60.563084,12697.693
-9.163098,-60.57828,12697.521
-9.147423,-60.5933,12697.799
-9.131657,-60.60835,12698.128
-9.115737,-60.62355,12698.163
-9.099689,-60.63893,12697.713
-9.083726,-60.654297,12697.052
-9.067822,-60.66963,12696.351
-9.051977,-60.68492,12695.608
-9.036071,-60.700283,12694.627
-9.020164,-60.715683,12693.338
-9.004318,-60.731052,12691.876
-8.98862,-60.746296,12690.495
-8.972914,-60.761524,12689.182
-8.957153,-60.77681,12687.747
-8.941435,-60.792057,12686.324
-8.9258795,-60.807137,12685.217
-8.910517,-60.821957,12684.811
-8.895346,-60.836464,12685.427
-8.880139,-60.850857,12686.827
-8.864694,-60.865383,12688.354
-8.849057,-60.8801,12689.628
-8.833237,-60.89506,12690.335
-8.817386,-60.91013,12690.664
-8.801546,-60.925255,12690.764
-8.7857065,-60.94043,12690.585
-8.770033,-60.95546,12690.475
-8.75448,-60.970356,12690.537
-8.738945,-60.985203,12690.625
-8.723186,-61.00028,12690.171
-8.707261,-61.0156,12689.016
-8.691458,-61.0309,12687.638
-8.675878,-61.045998,12686.6455
-8.660472,-61.060844,12686.274
-8.644995,-61.075672,12686.176
-8.629324,-61.090652,12685.891
-8.613552,-61.10577,12685.21
-8.597726,-61.121,12684.17
-8.581911,-61.136272,12682.963
-8.566114,-61.151546,12681.8
-8.550347,-61.16678,12680.735
-8.534621,-61.18197,12679.72
-8.518934,-61.197098,12678.76
-8.503192,-61.21227,12677.697
-8.4874935,-61.227398,12676.797
-8.471849,-61.242447,12676.232
-8.456195,-61.257454,12675.957
-8.44048,-61.272484,12675.812
-8.424753,-61.287495,12675.794
-8.409112,-61.302402,12676.137
-8.393443,-61.31729,12676.726
-8.377737,-61.332172,12677.496
-8.361989,-61.347065,12678.376
-8.346201,-61.361984,12679.355
-8.330348,-61.376957,12680.212
-8.31434,-61.392113,12680.599
-8.298224,-61.40745,12680.372
-8.28214,-61.42285,12679.746
-8.266105,-61.438263,12678.786
-8.250246,-61.45353,12677.837
-8.234532,-61.46864,12677.15
-8.218874,-61.483658,12676.664
-8.203225,-61.498623,12676.286
-8.187587,-61.513557,12675.97
-8.171925,-61.528503,12675.665
-8.156278,-61.543438,12675.458
-8.140682,-61.558296,12675.45
-8.125147,-61.573074,12675.662
-8.109715,-61.587704,12676.312
-8.094303,-61.60225,12677.225
-8.078828,-61.616814,12678.18
-8.06317,-61.63157,12678.746
-8.047421,-61.646484,12678.818
-8.031575,-61.661583,12678.24
-8.015801,-61.676704,12677.281
