Latitude,Longitude,Altitude (m)
-10.832247331514466,15.684366462292523,11573.171704273225
-10.821239404726274,15.682608667345601,11573.199173526766
-10.810232519862057,15.680823105956208,11573.225956048967
-10.79922355114989,15.679008882432646,11573.251365108492
-10.788217708209647,15.677162414008148,11573.277460899355
-10.777211865269402,15.675281237530557,11573.303556690218
-10.766202896557235,15.673361770233104,11573.328965749743
-10.75519913746494,15.67140266857825,11573.353688077928
-10.744197462220594,15.669399901953375,11573.379097137453
-10.733200996596118,15.667352798589713,11573.4031327343
-10.72220661481959,15.66525643218295,11573.427855062486
-10.711212233043065,15.663108115658014,11573.451203927994
-10.700227228582307,15.66090650547736,11573.473866062166
-10.68924534989347,15.65864869064299,11573.497214927675
-10.678269722748482,15.656331312311055,11573.519190330506
-10.667297221375414,15.653952355175248,11573.541165733339
-10.656336181166063,15.651508236468796,11573.56314113617
-10.645378266728637,15.648996940885393,11573.584429807664
-10.634428687683004,15.646416229195804,11573.605718479157
-10.623488485953139,15.643761175095722,11573.624946956636
-10.612556619615068,15.6410313307393,11573.645548896791
-10.601632046744818,15.63822266551392,11573.664090642931
-10.590721018886233,15.63533361195912,11573.683319120408
-10.579818326419442,15.632360363385208,11573.701174135209
-10.568929178964316,15.62930135233172,11573.718342418671
-10.55804732497701,15.626152996031884,11573.734823970795
-10.547172764457526,15.622912607410623,11573.75130552292
-10.536321126265474,15.619577947238707,11573.767100343706
-10.525476781541244,15.616161331276908,11574.069948863984
-10.514649107600599,15.612651563379067,11574.590491218569
-10.503832894823674,15.609039238782414,11575.222284049989
-10.493033352830336,15.605324805332794,11575.898714418412
-10.482255691240457,15.601509158721896,11576.587505950929
-10.471511371217757,15.597594538178958,11577.272177095414
-10.460806644306077,15.593583854701976,11577.945173807146
-10.45013630088555,15.589478227905568,11578.60237569809
-10.439522221359633,15.585278777404351,11579.245156230927
-10.428963363804352,15.580986398890015,11579.872141942978
-10.418438889740221,15.576110925083734,11571.288000211716
-10.408031111161211,15.571023172346283,11555.76100464821
-10.397752531155009,15.565971023353617,11536.463854036332
-10.387575017774312,15.561022102828533,11515.429959869385
-10.377470439071814,15.556150883557791,11493.696286468507
-10.36743254350367,15.55130787857537,11471.717449979784
-10.357451953754111,15.54644740760494,11449.674060745241
-10.34753700521493,15.541537225745568,11427.625864391328
-10.337682488266259,15.536555836396623,11405.587969007493
-10.327906115615656,15.531492491257799,11383.562434787751
-10.318207887263124,15.52634002479555,11361.540334224703
-10.308587803208663,15.521097093472338,11339.527847900392
-10.299054198844068,15.515761458058932,11317.51604830742
-10.289603948397414,15.510333118555332,11295.506995639802
-10.280234968020752,15.504813194576155,11273.497942972184
-10.270954551181903,15.499203029658936,11251.490950498583
-10.261763739804843,15.493501504189062,11229.48327129364
-10.252651072725854,15.487710633472844,11207.476965551377
-10.243625927260702,15.481831761047816,11185.469286346437
-10.234684135713493,15.475863991222289,11163.462293872835
-10.225818404616405,15.469810234994261,11141.455301399232
-10.217041237057131,15.46366937274912,11119.446935462953
-10.20834012994798,15.457443643716093,11097.438569526674
-10.199723418680742,15.451133719663956,11075.428830127717
-10.191181725939654,15.44473937666978,11053.419090728761
-10.182722345192532,15.438262630039876,11031.409351329805
-10.17433798297156,15.431703479774244,11009.396865005494
-10.166031765048656,15.425063269410423,10987.385065412522
-10.1578005656519,15.418341998948412,10965.371892356874
-10.149642300933344,15.411541907617444,10943.358032569886
-10.141564264360808,15.404662323648749,10921.342799320222
-10.133557078618521,15.397704366656942,10899.328252801895
-10.12562178563046,15.390670051948334,10877.311646089554
-10.11776046924457,15.3835591556,10855.292979183198
-10.109970003688932,15.37637302114948,10833.275685739518
-10.102247263191623,15.369110976828,10811.255645370484
-10.094596415448537,15.361776157556493,10789.234918270113
-10.087016418535702,15.354367443720335,10767.21419116974
-10.079502062833248,15.346887074548762,10745.19209060669
-10.072054390265144,15.339334378273005,10723.17067677498
-10.06467444275537,15.331712265891063,10701.145829286577
-10.057359094532002,15.32401961778832,10679.12235526085
-10.050109387519012,15.316258225348165,10657.096821041108
-10.042922195944477,15.308427640724746,10635.071973552705
-10.035801687504296,15.300531446684838,10613.045752601625
-10.028741610654624,15.292566732230439,10591.018158187868
-10.021744049243408,15.284538423665857,10568.989190311433
-10.01480483557475,15.27644338607017,10546.960909166337
-10.00792813734455,15.268284754364302,10524.931254558564
-10.00110770300896,15.260063648162868,10502.900913219453
-9.994347700263878,15.251779171774174,10480.869198417664
-9.987643961413406,15.243434012273301,10458.836796884538
-9.980998570305495,15.235027497891478,10436.804395351412
-9.974407359244244,15.226560748243323,10414.771307086945
-9.967870328229656,15.21803510686637,10392.736845359803
-9.96138956110968,15.20945169337524,10370.70238363266
-9.954960890188417,15.200810283847005,10348.665861711503
-9.948584315465867,15.19211222181921,10326.629339790345
-9.942257753094083,15.183357955137696,10304.594191331864
-9.935986412692934,15.174549499108775,10282.555609216692
-9.929760916946654,15.165685958040752,10260.517713832856
-9.923589601247036,15.156770019008707,10238.478444986344
-9.917462046354338,15.147800786320946,10216.439176139833
-9.911381378040481,15.138779603515008,10194.399220561982
-9.905353847849314,15.129708038051357,10172.36063844681
-9.899363826921219,15.12058676169876,10150.31930940628
-9.893424860267864,15.111415550534296,10128.277980365754
-9.88752757057348,15.102195748095502,10106.236651325227
-9.88167508360999,15.092928473996995,10084.195322284699
-9.875862189757521,15.083614176084623,10062.152619781495
-9.870094098635947,15.074254421818845,10040.11060400963
-9.864368726397318,15.06484898727674,10018.068588237764
-9.858678779573813,15.055399887764617,9996.025199003221
-9.853027383937357,15.045906899359549,9973.983183231356
-9.847417665259874,15.036370917753233,9951.94048072815
-9.841843371997513,15.026793286483205,9929.897091493607
-9.836308671846176,15.017174677318238,9907.853702259064
-9.830805229414068,15.007515314181253,9885.811686487199
-9.825337212397084,14.997816988455636,9863.768297252656
-9.819906704643174,14.988080147987231,9841.725594749452
-9.814510580380414,14.978305240621888,9819.683578977585
-9.809141546140987,14.968493162051297,9797.640189743042
-9.803807937316684,14.958645255813,9775.598860702516
-9.79850558621161,14.948761745829916,9753.558218393327
-9.793228241281918,14.938844423485435,9731.51620262146
-9.787984237919403,14.928892840933706,9709.475560312272
-9.782765240732271,14.918908117789348,9687.435604734423
-9.77757854318834,14.908891373666977,9665.395649156571
-9.77241372604787,14.898843728181205,9643.357067041397
-9.767279124702654,14.888765405254961,9621.317798194887
-9.762165361836923,14.878657972348703,9599.279216079713
-9.7570755632226,14.868520981616587,9577.24063396454
-9.75201077078366,14.858356672287842,9555.206172237396
-9.74696577490023,14.848165268285394,9533.168963584902
-9.741945785192184,14.837947441378011,9511.133128395082
-9.7369435081917,14.827704087257388,9489.09866666794
-9.731961027746728,14.817435653769367,9467.065578403473
-9.726998343857266,14.807143932297336,9445.032490139009
-9.72205128882742,14.79682914676422,9423.000088605882
-9.717125072277057,14.786491968938783,9400.969060535432
-9.712211358814386,14.77613374235857,9378.940092658997
-9.707314316135303,14.765754690946503,9356.911124782564
-9.702429776543912,14.755355934317194,9334.88147017479
-9.697565033508033,14.744937920316493,9312.854562492372
-9.692710709711896,14.734502664250709,9290.82902827263
-9.687865763231528,14.724049718273992,9268.804180784227
-9.683032277914876,14.71358087376973,9246.780020027161
-9.678209211837967,14.70309657858377,9224.757232732774
-9.673393439228878,14.69259683271611,9202.735132169724
-9.66859016970748,14.682083875395982,9180.71509180069
-9.663793151729928,14.671557930546312,9158.694364700319
-9.659000301448273,14.661018998167096,9136.6763845253
-9.654217870406361,14.650469093564645,9114.658404350283
-9.6494333555165,14.639908664584805,9092.642484369278
-9.644655092170485,14.629339054765115,9070.626564388276
-9.639883080368316,14.618759816259729,9048.612017869951
-9.635111068566147,14.608173188297878,9026.598844814302
-9.630343224459873,14.597579618725407,9004.58704522133
-9.62557017073373,14.586979555388165,8982.575245628357
-9.620801284703482,14.576373893977843,8960.564819498064
-9.616027189053366,14.565763978031983,8938.555080099108
-9.61125413532722,14.555150703242273,8916.546027431488
-9.606474830057232,14.544534293531639,8894.53766149521
-9.601693440939293,14.53391609243762,8872.530669021608
-9.596908926049434,14.52329632388314,8850.523676548006
-9.592117117691751,14.512676779251581,8828.517370805741
-9.587315932018303,14.502057906388792,8806.512438526155
-9.582510578648957,14.49144082490939,8784.506819515229
-9.57769272219192,14.480825982659217,8762.502573966982
-9.572870698038985,14.47021427532997,8740.498328418733
-9.56803408695041,14.459606822536264,8718.493396139145
-9.563187056622093,14.449004296046867,8696.489837322237
-9.558325439358136,14.438408039399318,8674.485591773988
-9.55345444477841,14.427818724362389,8652.481346225739
-9.548570947110994,14.417237022704848,8630.477100677492
-9.543665569040117,14.40666405404131,8608.471481666566
-9.538748729805524,14.396101833678085,8586.467236118318
-9.533812094015419,14.385548570231785,8564.461617107392
-9.5288598293657,14.375007846469186,8542.45531136513
-9.523888810084445,14.364478990621514,8520.448318891526
-9.518896952323704,14.353963570149231,8498.439266223908
-9.513885298007452,14.343462256821109,8476.430900287629
-9.508848637515817,14.332976394174686,8454.418413963318
-9.503791138544697,14.322506430055808,8432.407301101686
-9.498708633398193,14.312053708002017,8410.393441314698
-9.493603205924257,14.301619347627923,8388.378208065034
-9.488475898046861,14.29120334893353,8366.358854427339
-9.483315248602286,14.280808846839763,8344.338814058305
-9.47813167683028,14.270434049963235,8322.316026763918
-9.472917889263018,14.260081645379024,8300.291179275513
-9.467675969748452,14.249751409164208,8278.26221139908
-9.462401750590683,14.239445804470941,8256.23118332863
-9.457095231789712,14.229164943260685,8234.196034870149
-9.451757455269512,14.21891028103244,8212.157452754975
-9.44638737910611,14.208682377593513,8190.114750251771
-9.440980835603607,14.19848224059706,8168.067927360536
-9.435606591744309,14.18751337620535,8132.401848564149
-9.43035216914205,14.176374778237873,8085.410196533204
-9.42516547159812,14.165483895004158,8031.6199042511
-9.419953767878809,14.154965339610952,7974.3362096500405
-9.414647249077836,14.144788098733395,7915.43594947815
-9.40921986709585,14.13487340748326,7855.842777385713
-9.40366016076913,14.125146867469322,7795.970792369843
-9.397988968577163,14.115552218057134,7735.983436489106
-9.392217751683665,14.106053463636796,7675.934274787904
-9.386363180872227,14.096628043973798,7615.8384153556835
-9.380437759230537,14.087262467712018,7555.696544923783
-9.374455031770262,14.077948057838183,7495.503856372834
-9.368430627351017,14.068681119624062,7435.257602777482
-9.36236662982075,14.05945795834142,7374.955723943711
-9.356270332647279,14.050276166818836,7314.595472946168
-9.350149029298427,14.041134177595845,7254.17753651619
-9.344007929394062,14.032030087327604,7193.700541191102
-9.33785536832598,14.022961656784876,7133.1644869709025
-9.33168822032226,14.013927486449393,7072.569373855592
-9.325520030394566,14.004925784937774,7011.9172620391855
-9.319349756618921,13.995953865174934,6951.206091327668
-9.313183650539175,13.9870097678353,6890.437921915055
-9.307025879851222,13.978091981439137,6829.612753801347
-9.300880612250962,13.969198042834295,6768.7319604492195
-9.294758266978134,13.960326104656653,6707.797602052689
-9.288771371821962,13.950863401826945,6637.001781635286
-9.2829866099168,13.941254981154984,6557.668517217637
-9.277345633520087,13.931807673026244,6472.9938564491285
-9.27178905296529,13.922608247573459,6385.4630800437935
-9.266287694381129,13.913626083336885,6296.55746749878
-9.26082071928812,13.904798761801686,6207.057145614625
-9.255398546926004,13.8960703582178,6117.328828926087
-9.250020135370809,13.887401294208555,6027.533899297715
-9.244697987710223,13.87876968130821,5937.736222743989
-9.23944252318399,13.870165610927417,5847.9598348617565
-9.23425582564006,13.861587291682788,5758.2098861360555
-9.229133727382536,13.853038866148403,5668.489810223579
-9.224076228411414,13.844525260628572,5578.797546930314
-9.219086454498623,13.836055879886068,5489.133782987595
-9.214144609088645,13.827638729165393,5399.497144932747
-9.209255901801358,13.81928287734494,5309.886946034431
-9.204407829549067,13.81099873684063,5220.303873023987
-9.199591015016004,13.802795824376703,5130.745865707398
-9.194801290506271,13.794683936581048,5041.2118939876555
-9.190024069084231,13.786672870081551,4951.701614499092
-9.18525414113001,13.77877359710145,4862.213310413361
-9.180483171251813,13.770995522403517,4772.745951633454
-9.175703865981825,13.763348890461486,4683.297477965355
-9.170901638384402,13.755844785460058,4593.86582921505
-9.166070236915699,13.748494067661003,4504.448945188523
-9.161200284259946,13.74130698153806,4415.045452423096
-9.156286570797276,13.734294387352998,4325.651230530739
-9.15131034189615,13.727467985078556,4236.264906048775
-9.14626742986067,13.720838355072855,4146.882358589172
-9.14115158314699,13.714416805443514,4057.5022146892547
-9.135944047123575,13.708215092144,3968.1193238639835
-9.13063231870273,13.702444878317444,3882.5251298332214
-9.125648796333785,13.696609446939512,3800.7536257982256
-9.121378991887214,13.690609880058894,3727.54428809166
-9.117638484819574,13.684356440564125,3661.3351462841038
-9.113723976448231,13.678559803832634,3603.775385684967
-9.109483345872942,13.673094545037076,3552.6781103467943
-9.104927012333446,13.668011914536491,3511.167604494095
-9.09949963035146,13.663378613371624,3476.753093562126
-9.0924916497005,13.65928183153068,3438.5234466791153
-9.083541522761497,13.65647378209334,3394.5942730522156
-9.072828460458023,13.655172677948233,3346.1041732406616
-9.060833831666194,13.655164224857884,3294.6549480915073
-9.048099436852633,13.656070133033952,3241.5098399019244
-9.035100393349605,13.657518046645565,3187.498076763153
-9.022188871460417,13.659209224522842,3133.115822067261
-9.009617016786839,13.660926321478476,3078.6429188346865
-8.997525489065405,13.662523087853268,3024.2366285419466
-8.985998684138023,13.663902928896237,2969.981762509346
-8.97507827896367,13.66500278231414,2915.9272503447532
-8.964762189694396,13.66578080251071,2862.0985011076928
-8.955054584026096,13.666208775197628,2808.5101078391076
-8.945920036543646,13.666265931523768,2755.169624583721
-8.93733041529974,13.665938220325701,2702.080313315392
-8.929384703071936,13.66495164391656,2645.7139200997353
-8.922053725988953,13.663481254041534,2586.177059977055
-8.91530622633156,13.661656758053871,2524.4979414439204
-8.909133868707968,13.659517678349514,2461.6336963033677
-8.903555407749712,13.657058416855383,2398.241869812012
-8.898135319235545,13.655209597240193,2347.2089755368233
-8.892878812785339,13.653353052284151,2308.4515756201745
-8.887868200393061,13.65109129080826,2278.449485220909
-8.883130572082042,13.648376701200979,2253.8085346984863
-8.878605496261775,13.645341118083326,2232.1395857262614
-8.874206493242395,13.642152035801839,2211.983505892754
-8.869834580246346,13.63895657171704,2192.5237716364863
-8.865412654899533,13.635858961949669,2173.3303174567222
-8.860878201763498,13.632924256108907,2154.1893982243537
-8.85618225041145,13.630193628022255,2134.997660872936
-8.851292501200188,13.62768664295512,2115.7097811341287
-8.846186031802276,13.625411222180917,2096.3067022132873
-8.840860758369768,13.623371592244816,2076.7831019425394
-8.835296884347152,13.621564058418583,2057.138121907711
-8.829493367810452,13.61998699726103,2037.3755391311647
-8.823450208759668,13.61863441883396,2017.500332415104
-8.817165323346856,13.61750030520881,1997.5173088788988
-8.810639753495984,13.61657670712181,1977.4329924702645
-8.803877666902954,13.615859985825459,1957.2523619914057
-8.796876979719816,13.615340428662963,1936.9822847557068
-8.789636650022594,13.615010562206761,1916.6273961997033
-8.781948293016434,13.615279465647129,1901.768418545723
-8.773945274970044,13.615775230999038,1892.4194297862055
-8.765867238397508,13.616173757821558,1887.0749431443214
-8.757919442321754,13.616308419469481,1884.258657925129
-8.75025400764303,13.616120520146573,1882.921935374737
-8.742940743267608,13.615602642406001,1882.4204498147965
-8.736024451926385,13.61476704602781,1882.3921221470835
-8.72950513361936,13.613629181693698,1882.649303033352
-8.723385914118456,13.612202064923574,1883.0977385973931
-8.717649080716109,13.610488438773249,1883.4644531321526
-8.712237327593737,13.608542968426343,1883.7142516565323
-8.707067300833396,13.606435014008307,1883.8782087635996
-8.702055646517143,13.604229793070518,1883.993407945633
-8.697138807282549,13.601977996164708,1884.0837131166459
-8.69227198039872,13.599703667014754,1884.0066275238992
-8.687437453158095,13.597436139523591,1883.7688467979433
-8.682614387081186,13.595190472507804,1883.4180987668037
-8.677797572548123,13.59296910112918,1882.9995360159876
-8.67298805148288,13.590769086399355,1882.5428596758843
-8.66818686580943,13.588584634312689,1882.0678132724763
-8.66338776398393,13.586411266410721,1881.5848694586755
-8.658592829854326,13.58424265687087,1881.0983203053474
-8.653808314964465,13.582073879388828,1880.6117711520196
-8.649027967770502,13.579901659091842,1880.1259087300302
-8.644246578652563,13.577721517521448,1879.64038967371
-8.63947352492642,13.575529312103567,1879.1567591285707
-8.634693177732457,13.573321683994354,1878.6738153147699
-8.629946172105669,13.571030728567354,1877.3312555480004
-8.625227298426188,13.568705792836763,1875.1316550707818
-8.620517802062475,13.566392025261964,1872.318288459778
-8.615804138002865,13.564119683427954,1869.1280780267716
-8.61128218795452,13.561524640671282,1860.6429972910882
-8.606854011063861,13.558941241906616,1846.9619355654718
-8.602359151038847,13.556651322123136,1829.5361278510095
-8.597660073914877,13.554794161379057,1809.7623856902123
-8.592731773516567,13.553321840168817,1787.507483203411
-8.587601339867248,13.552245834542232,1763.4023548078537
-8.582347959188963,13.551509044153892,1738.1321866965295
-8.5770654046394,13.551016861568753,1712.214259250164
-8.571847449376243,13.550666730088006,1685.9824955821039
-8.566773279621534,13.550370899916127,1659.6315840268135
-8.561897075421937,13.55005802361172,1633.2693414044381
-8.557252178344628,13.549673352020072,1606.951736319065
-8.552857343021145,13.549175319448565,1580.7069247555733
-8.5486958986679,13.548561154851027,1554.6497625303268
-8.544655317495671,13.547927145084424,1528.7409342741967
-8.540575143212418,13.547456850965027,1502.8885896706581
-8.536305338765848,13.547368877246585,1477.000363354683
-8.531741711758533,13.547873879419074,1451.0069813024998
-8.526823830599966,13.54916051254527,1424.860200637579
-8.521568366073733,13.551392632224207,1398.5289467668533
-8.51599824050727,13.554710498176885,1371.993733688593
-8.509969668392127,13.5596271178203,1350.5473715114595
-8.503747298417771,13.565778196548813,1334.2757874941826
-8.497706223214937,13.572734334166867,1321.7920418572426
-8.492204864630777,13.580147246557834,1311.7015549349785
