Latitude,Longitude,Altitude (m)
-10.959246402814607,15.521880375857602,11570.248288965226
-10.948558346686516,15.519991809923548,11570.198844308854
-10.937855703622786,15.518097869839337,11570.147339458466
-10.927149934787133,15.51619295753189,11570.09995499611
-10.916443124027506,15.514277296924131,11570.052570533753
-10.90573214557198,15.512345513865903,11570.005872802736
-10.895013873648637,15.510396936588437,11569.96329545975
-10.884289350181445,15.508428206247885,11569.915910997392
-10.873568994410153,15.506436187923324,11569.872646923066
-10.862842387095014,15.504420209845982,11569.832129774095
-10.852114737855901,15.50237736101786,11569.794359550477
-10.841378753224994,15.50030361082634,11569.75658932686
-10.830646936289984,15.49819604827342,11569.72431295395
-10.819910951659077,15.496055569050792,11569.691349849702
-10.80917496702817,15.493877470777074,11569.656326551438
-10.798447317789057,15.491659066377181,11569.62817056656
-10.787714458930072,15.489395877392656,11569.601388044359
-10.776972222755319,15.487088799515186,11569.573918790818
-10.766239363896336,15.484734026055083,11569.555377044679
-10.755505463113376,15.482328869937263,11569.534088373186
-10.744773646178366,15.47987042016373,11569.514859895708
-10.734040787319381,15.47735733319694,11569.499065074922
-10.723314180004243,15.474785802347201,11569.49082429886
-10.712588614613079,15.472154931922823,11569.47296928406
-10.701863049221915,15.46945957169657,11569.469535627366
-10.691145819222545,15.466699049899672,11569.464041776659
-10.680429631147149,15.463871351225823,11569.457861194613
-10.669716568843675,15.460971773293634,11569.459234657288
-10.659004548464177,15.458000316103107,11569.46335504532
-10.648301905400446,15.4549527251187,11569.468848896027
-10.637606555804535,15.451827208957027,11569.475716209412
-10.626905996588754,15.448621304465936,11569.488764104844
-10.616218982384638,15.445330757109884,11569.505245656968
-10.60553926164834,15.441955342965949,11569.52241394043
-10.594898092099093,15.438470654435505,11569.76963722229
-10.584265257941638,15.434892142200251,11570.216012592316
-10.57362929801226,15.43122853925419,11570.795613842012
-10.56298500269109,15.427481189134863,11571.450068807602
-10.552336539674021,15.423654346377807,11572.159462280275
-10.541681825113109,15.419750474135181,11572.886710767747
-10.531031278248092,15.415774050865446,11573.631127538682
-10.52038698292692,15.411729555027065,11574.389278936387
-10.50975519069344,15.407620121540964,11575.15773130417
-10.499131733851755,15.403448885328066,11575.93648464203
-10.487492401135153,15.39990261799375,11569.514859895708
-10.475632180536005,15.396491376182105,11556.922267341615
-10.463961590100176,15.39301228572474,11540.220274457934
-10.452533767950351,15.38945370262965,11521.048795681001
-10.441249731308977,15.385840034495457,11500.444795331956
-10.430059467825286,15.382188299464325,11479.051053943635
-10.418889000897108,15.378494466923636,11457.239779901505
-10.407715408197006,15.374749803879386,11435.210125293734
-10.396545983192802,15.37094624910634,11413.082268104554
-10.38538697742834,15.367073726072958,11390.906339721681
-10.37428944517836,15.363137385006471,11368.739338846208
-10.363261721834656,15.359135434523493,11346.588819522858
-10.352304849321204,15.35506809854695,11324.449974632264
-10.341417785714027,15.350938511997763,11302.320743980408
-10.33059948908915,15.34674219641747,11280.199754104615
-10.31984787559863,15.342482510649917,11258.091812124254
-10.30916711293836,15.338159006849262,11235.99348438263
-10.298558243032314,15.333770117555037,11213.901337223055
-10.288017098184595,15.329317186304786,11191.825671615601
-10.277552013787,15.32480043702143,11169.752066202165
-10.267145277131963,15.320218974013278,11147.680520982743
-10.25681043323115,15.315573692972018,11125.626144046784
-10.246548524008537,15.310865041743503,11103.575887498857
-10.236355381768226,15.30609324425065,11081.535931921006
-10.226225796890345,15.301256285187154,11059.496663074495
-10.216170188614639,15.296357075551017,11037.465635004044
-10.206188556941106,15.291394271804696,11015.44147424698
-10.196263189162183,15.286367873948194,10993.422120609284
-10.186418049529278,15.281278329827359,10971.41100774765
-10.17664271880265,15.27612519159634,10949.396461229326
-10.166927819666531,15.270910250638526,10927.394962606431
-10.157283771360662,15.265630595955912,10905.388656864166
-10.147711615809017,15.260290034238198,10883.394712285997
-10.138205101467753,15.254886326256146,10861.399394245149
-10.128768396032763,15.249419695932684,10839.40476293564
-10.119397331808154,15.243891038959502,10817.4149387455
-10.110098160337769,15.238299907490752,10795.427174749375
-10.100872965469557,15.232646525449363,10773.442844409943
-10.091700908724034,15.226932460295792,10751.45920080185
-10.082603870504657,15.221154129263269,10729.47418373108
-10.073571431571686,15.215315115118567,10707.49328704834
-10.06461088539294,15.209415193938762,10685.515137290955
-10.055714938500598,15.203452350417544,10663.529433488848
-10.046883590894662,15.197428599861222,10641.55265719414
-10.038121010271027,15.191345285807335,10619.570387048723
-10.029425112781746,15.18519927333496,10597.587430171967
-10.020793814578871,15.17899280167333,10575.603099832535
-10.012231283358297,15.172725422976594,10553.621516418458
-10.003731267576178,15.166396913321831,10531.637186079026
-9.995292725308543,15.160008168400735,10509.65079554558
-9.986925033871158,15.153558740367458,10487.660971355439
-9.978622983644152,15.147050196682464,10465.668400239945
-9.970374071539835,15.14047962634775,10443.67651585579
-9.96219913603769,15.133850164284242,10421.679137620928
-9.954082548278105,15.127160914800244,10399.681072654725
-9.9460316017289,15.120411206126992,10377.678887300492
-9.938042128694175,15.113602829647865,10355.671208095551
-9.930119338793805,15.106733434172176,10333.660095233918
-9.922255938559967,15.099807162273999,10311.6510425663
-9.914452969916638,15.092818751764641,10289.633062391282
-9.90671355863574,15.08577312894841,10267.610275096895
-9.899033537021374,15.078667942634619,10245.584054145815
-9.891412905073542,15.071504536360798,10223.551652612687
-9.883852704716219,15.064282910126956,10201.517877616883
-9.876353977873379,15.057001496472623,10179.475861845018
-9.8689094310772,15.049662086781188,10157.43041241646
-9.861526357795501,15.042265800667268,10135.376722211839
-9.854204758028287,15.034810286940168,10113.314791231156
-9.846933170611836,15.027296777175966,10091.252860250474
-9.83972097286192,15.019725831181967,10069.18200176239
-9.832575458246357,15.012098120726945,10047.107709617616
-9.825476830209636,15.004409839121205,10025.021056308748
-9.818426130675732,14.99666837582121,10002.930282611847
-9.811440030428233,14.98886790883096,9980.83401506424
-9.80450915215137,14.981008774034837,9958.728133277895
-9.797631411997195,14.973094890083999,9936.616070909502
-9.790806809965709,14.965122674211672,9914.499201421739
-9.784031178361012,14.957095709184632,9892.369970769883
-9.777309726802978,14.949011195966333,9870.233186073305
-9.770641413367631,14.940869246518242,9848.088847332001
-9.76402311228305,14.932672883799817,9825.936954545976
-9.757461075093081,14.924420540350601,9803.779567909241
-9.750932379470287,14.916111768324743,9781.606386451722
-9.74446619928595,14.907747799298324,9759.42977133751
-9.738044821832506,14.899327625618186,9737.242168521881
-9.73167137288188,14.890851919053103,9715.046324930192
-9.725346894358044,14.882321799217687,9692.840180368425
-9.719068260489076,14.873736146497324,9670.625795030595
-9.712828177807156,14.865094848930553,9648.39973526001
-9.706644359019846,14.85639980986222,9626.162001056673
-9.700505342963432,14.847648902024554,9603.920833196642
-9.694404878094064,14.838844028762402,9581.664557247163
-9.688346090183668,14.82998530203723,9559.397293596268
-9.682336272700061,14.821071490272953,9537.121789169312
-9.676361880631582,14.81210416093004,9514.831863384248
-9.670436458989892,14.803082978124102,9492.530949897768
-9.664541253143456,14.794007717932217,9470.2231690979
-9.65868980810394,14.784879835853388,9447.897533283234
-9.65288629156724,14.775697316581303,9425.565716886522
-9.64711194890182,14.766463071113964,9403.2194791317
-9.641380325119345,14.757173852568988,9380.860880212786
-9.635678917132125,14.747832795867295,9358.489233398439
-9.630021269951824,14.738439453163041,9336.106598882676
-9.624393838566776,14.72899203307284,9313.712976665498
-9.618804958368775,14.719494230324926,9291.305619821549
-9.613247335890005,14.709942462152526,9268.88109469414
-9.607723054978411,14.700339639553643,9246.445581865311
-9.60223628332989,14.690684418990736,9223.9942742157
-9.596780769400597,14.680978144001346,9201.53197886467
-9.59135338741861,14.67121991889378,9179.051141767502
-9.585955179307902,14.661410415436805,9156.55863023758
-9.580589270840397,14.651549969514809,9134.048263692857
-9.575259829711992,14.641637909359021,9111.524849252703
-9.569950185139097,14.631676026352828,9088.987013454438
-9.564672840209406,14.621662976958689,9066.434069566727
-9.5594163337592,14.611600104714142,9043.863270664217
-9.554191085028222,14.601487297657728,9021.273930015564
-9.548998135940446,14.59132343617483,8998.669481277468
-9.543820815712284,14.581110759494681,8976.051984643937
-9.53867475320335,14.570848148002662,8953.413199338915
-9.533547445325954,14.560535937583163,8930.755872287751
-9.528443059775991,14.550175583735179,8908.080690221788
-9.523361596553462,14.539765742921173,8885.391773529054
-9.518305139506317,14.52930731083284,8862.67538758278
-9.513267437090708,14.518801854930638,8839.950074129105
-9.508251615078558,14.508246688139494,8817.19797815323
-9.503254547697946,14.49764438557302,8794.425966968538
-9.49828352841669,14.486994611346834,8771.635414037706
-9.4933260541471,14.476297029576548,8748.826319360734
-9.488387334509047,14.465553207722628,8725.995936012268
-9.48346736950253,14.45476303382361,8703.143577260973
-9.478565117203578,14.443924828457574,8680.26168906212
-9.473675367992314,14.433041502622515,8657.363319311144
-9.468800205716692,14.422111488857976,8634.439540500642
-9.463945881920555,14.41113601874003,8611.499280138018
-9.459107186984033,14.400115764037452,8588.527430133821
-9.454278911287252,14.389050388865853,8565.535664920808
-9.449470432145983,14.377940676955465,8542.51437026024
-9.444671330320482,14.366786068498982,8519.469726734162
-9.43988889927857,14.355588242918325,8496.396240491868
-9.43511167785653,14.344346528444726,8473.297345190049
-9.430356336837947,14.3330620446928,8450.170293903351
-9.425606205439239,14.321734231855242,8427.016460094454
-9.420869619052194,14.31036387366228,8403.835157032014
-9.416143451904892,14.298952425612914,8380.622951059342
-9.411427703997333,14.287498656131067,8357.382589101793
-9.406729668797338,14.276003236985511,8334.10651711464
-9.402038927065162,14.264467063867938,8310.802975873949
-9.397353394952857,14.25289181620027,8287.465784797669
-9.392681407852217,14.241275702599124,8264.099064273836
-9.38801463037145,14.229619954640574,8240.697320451738
-9.383363481750296,14.217926251746547,8217.259866600038
-9.378719626596961,14.206194258032658,8193.786015987398
-9.374090358379267,14.194423749575982,8170.277142076493
-9.369462132085546,14.182615957952597,8146.73599179268
-9.364845366955544,14.170770827181775,8123.152950897218
-9.35904810196269,14.159799051792062,8087.760877904893
-9.353116428777156,14.148971762668529,8042.087063312531
-9.347497332783902,14.138030440796369,7989.475888738633
-9.342131424316397,14.127003356444632,7932.604232940675
-9.336866582474396,14.115970226173971,7873.244549503327
-9.331527764030222,14.104983168044752,7812.462645463945
-9.326033698913882,14.094061159524715,7750.89374731064
-9.320343752090379,14.083201513538784,7688.883967638017
-9.314463133179583,14.072394993266375,7626.632458534242
-9.308406429117134,14.061631634137408,7564.244289894105
-9.302275748452512,14.050914571072807,7501.82315814972
-9.29606900733777,14.040250353818076,7439.361509256364
-9.28979245731675,14.029644300542639,7376.874451303483
-9.28343255337779,14.019102849030538,7314.3606108284
-9.277003882456526,14.008629134202698,7251.826855144502
-9.27049915108514,13.998229873746812,7189.275244445802
-9.263921485035556,13.987909266217692,7126.712646045686
-9.257277135851618,13.977672237919647,7064.1376864814765
-9.250553600445636,13.967522259657986,7001.566847305299
-9.243760256133378,13.957466217062597,6938.990514278413
-9.236900228686764,13.947506797208558,6876.423795490266
-9.229975601953747,13.937649206303833,6813.861883821488
-9.222975956694583,13.927895739558382,6751.317140436174
-9.215910670225039,13.918252890736982,6688.788878602983
-9.208782868317039,13.908722451223014,6626.286712560654
-9.200888210363972,13.89987206562673,6554.863219699861
-9.192931036972452,13.89121402982145,6475.63639863968
-9.185234344574498,13.882582192998182,6391.166383810044
-9.177800217018062,13.873989094840624,6303.514055957795
-9.1705453003852,13.865471402727444,6214.035709476472
-9.163408121161432,13.857039641036033,6123.551988315583
-9.156355337779578,13.848681549986347,6032.541544218065
-9.149390076011565,13.840372945902683,5941.256407585145
-9.142536300108798,13.83208421497845,5849.838731803895
-9.135795051995252,13.823793244824984,5758.351009426117
-9.129263230600536,13.81548531251009,5666.861226854325
-9.122930416684905,13.80715526780653,5575.352215805054
-9.116792442552466,13.798798856178767,5483.823976278305
-9.110852433975136,13.790413502513184,5392.264833841324
-9.10510830710497,13.78199489629351,5300.66586098671
-9.09955589424607,13.773539510733704,5209.020877132416
-9.094200405018308,13.765046394161343,5117.325761890412
-9.089026210562068,13.756512803520618,5025.563346977234
-9.084040604345173,13.74793593977499,4933.731572198868
-9.079232125203903,13.739318545980268,4841.82288351059
-9.074598689290314,13.730655471909218,4749.8249197483065
-9.070142380452348,13.721951028078111,4657.729440135956
-9.065854863298215,13.713202583392599,4565.529577360154
-9.06172780243612,13.704413664638725,4473.217777376175
-9.057762239790039,13.695585111527448,4380.783052482605
-9.053949839968174,13.68672039486408,4288.216475172043
-9.050285393350658,13.677822593588811,4195.507057743072
-9.04676264839364,13.668896130179377,4102.643125762939
-9.043386814716996,13.659944587402547,4009.6219323062896
-9.040148515004956,13.650975522656978,3916.427682552338
-9.037036288093804,13.64199447803502,3823.048702068329
-9.034400220438894,13.632763367488606,3733.282615156174
-9.033053012740158,13.622979447225605,3646.757213430405
-9.034336663076463,13.611876844868029,3568.0447541427616
-9.037439512671847,13.59983642531783,3495.2903759479523
-9.040968509172709,13.587367725186697,3430.561140174866
-9.044423529071398,13.574766518665774,3371.6931563758853
-9.048319282811203,13.56165709108034,3322.0823110198976
-9.051139771009561,13.548785441648953,3279.254997825623
-9.050295812590399,13.537535162123543,3232.7001069259645
-9.045183091648642,13.528256467955954,3181.697943878174
-9.036285060908353,13.521016815926794,3127.6968250751497
-9.0245748773615,13.515676953968214,3072.165668849945
-9.011016320684288,13.511959049713283,3016.101609106064
-8.99647106200344,13.509545244572557,2960.1110296154025
-8.981521536820573,13.508136545462865,2904.492486827374
-8.966627233608344,13.507435442790404,2849.381438498497
-8.9521101068748,13.5071835574922,2794.7887006473543
-8.9381379063798,13.50719419383105,2740.6984784531596
-8.924814824520775,13.507351107819465,2687.1016727256774
-8.912133567829901,13.507577913750275,2633.9318422079086
-8.900137897114098,13.507800940981756,2581.1287262248993
-8.888824686601444,13.507942852134319,2528.63034727335
-8.878228319783089,13.507933447371546,2476.376272995472
-8.868295658536345,13.507785994126635,2420.5249282836917
-8.85924029727594,13.507324181087952,2361.4377055048944
-8.851171638019173,13.506470502933714,2300.139036133289
-8.84419491508744,13.505184289663,2237.461925282478
-8.838399733942536,13.50341602631942,2173.9270869898796
-8.834086168689046,13.500820451745806,2123.3937897634505
-8.830697831924711,13.497758725626873,2084.4976701164246
-8.827992997287499,13.494282322244587,2053.4031618404388
-8.825843508128575,13.490355329960142,2026.9329307150842
-8.824136836658715,13.485995942511048,2002.984377064705
-8.822762538936649,13.481284408274895,1980.3105684614181
-8.821551823278543,13.47634699178999,1958.2039999437334
-8.820366113795822,13.471306318847136,1936.2914330291749
-8.81908558923144,13.466270600198957,1914.3956910324098
-8.817619602199638,13.461324226797124,1892.441061823368
-8.815838954127607,13.456547782903618,1870.3696882867814
-8.813721764611884,13.451965480184501,1848.2148768925667
-8.81123365016132,13.447601670257674,1826.0092473793031
-8.808355856144379,13.443478241588874,1803.784561071396
-8.805042537906191,13.439615039347169,1781.5749828529358
-8.80127494081522,13.436033840036837,1759.4139908766747
-8.797009304064547,13.4327536351208,1737.335234978199
-8.792209160315073,13.429793360081248,1715.3745968699457
-8.786841167999619,13.427172426236584,1693.5650396561623
-8.780860524387293,13.424909489165348,1671.9402131724357
-8.774227636367073,13.423022406720658,1650.534110620022
-8.766996683985619,13.421433883508474,1635.561822295189
-8.759148912611396,13.420202195469551,1626.3807393479349
-8.750938551694126,13.419197355346988,1621.2197816562652
-8.742654214174683,13.418252876447402,1618.5945794320107
-8.734553255274712,13.41724228430475,1617.5002730441095
-8.726787795894456,13.416093965569162,1617.3100484633446
-8.719459944583395,13.414767348205997,1617.6501521587372
-8.712623881388192,13.413245442063458,1618.2977398109438
-8.706310864028072,13.411514447891404,1619.1176970291137
-8.70051880865509,13.40957610109249,1619.775929017067
-8.695160193655406,13.407464353979945,1620.226768140793
-8.690124575087745,13.405216447734924,1620.5220626163484
-8.685289005923144,13.402877348879443,1620.7097119545938
-8.680556587231997,13.400490106595477,1620.828173110485
-8.675857510108028,13.39809476110073,1620.7313439917566
-8.67115947490803,13.395709506132707,1620.458539967537
-8.666446852772395,13.393346993336571,1620.07002171278
-8.661714434081247,13.39101423429885,1619.6143754696848
-8.656978889618177,13.38870647065743,1619.1250793910028
-8.652230842067416,13.386420609476932,1618.6187867116928
-8.647490087984474,13.384147036066844,1618.1049399876595
-8.64274620812961,13.381883693135308,1617.5886897039413
-8.638013789438464,13.379623261201774,1617.07158100605
-8.633271993431547,13.377362717306777,1616.558077647686
-8.62854686820822,13.375096057516942,1616.0447459721565
-8.623814449517074,13.372821980280277,1615.5358780503275
-8.619084114673875,13.370534285730844,1615.027525177002
-8.614339192895036,13.368244309966634,1613.5658175230028
-8.60960469035594,13.365936784243319,1611.250331132412
-8.604903529384021,13.363622764755233,1608.3535266637803
-8.600229458435434,13.36132696699502,1605.097733387947
-8.595524129767618,13.359145285954527,1595.973477458954
-8.590812549555956,13.357046414410064,1581.6771044540405
-8.585961351531742,13.355147715963735,1563.8912778353692
-8.58077673783576,13.353593019108134,1544.007143611908
-8.575121174503408,13.352495852765308,1521.698504397869
-8.569075931604678,13.35183760334227,1497.6684872424603
-8.562816052367246,13.351550072313731,1472.6006473517418
-8.556552005433918,13.351540023772554,1446.9466822636127
-8.550471337120062,13.351698743139536,1420.9688375079631
-8.544749090653355,13.351910840133332,1394.795016796589
-8.539529051542248,13.352061848154648,1368.492777324915
-8.53489874140058,13.352068677803805,1342.058170387745
-8.5309290110586,13.351858218246386,1315.4732551288605
-8.527617776668361,13.351387392310045,1288.8376934337616
-8.524750401891163,13.350738855543801,1262.1171487355232
-8.521970548727802,13.350094391375722,1235.277456150055
-8.518915627635234,13.349685969959033,1208.3265130877496
-8.515287648356816,13.349757961178835,1181.310502231121
-8.510874058401797,13.35054871699166,1154.2939763259888
