Latitude,Longitude,Altitude (m)
-37.92977988737446,131.0036971922874,11995.01347732544
-37.918286593032995,131.00125870272143,11995.349212646484
-37.90678578182146,130.99888988428592,11995.687854766846
-37.89529248748,130.9965559014156,11996.02359008789
-37.883799193138536,130.9941870829801,11996.360778808594
-37.872298381927,130.99185310010978,11996.697967529297
-37.86081260445561,130.9895539528047,11997.03515625
-37.84931179324408,130.98715029880395,11997.373798370361
-37.837818498902614,130.98481631593364,11997.709533691406
-37.826328962996186,130.98248233306336,11998.048175811768
-37.81483566865472,130.98018318575828,11998.38536453247
-37.803346132748295,130.97781436732274,11998.721099853516
-37.79185283840683,130.97551522001768,11999.061195373535
-37.78036706093545,130.9732160727126,11999.395477294922
-37.768873766593984,130.97091692540752,11999.735572814941
-37.75738047225252,130.96858294253724,12000.072761535645
-37.745902211651206,130.96628379523216,12000.40849685669
-37.73442019261485,130.96398464792708,12000.74713897705
-37.72293065670842,130.9617551717525,12001.084327697754
-37.71143736236696,130.9594560244474,12001.422969818115
-37.69996286020068,130.95715687714232,12001.761611938477
-37.68848084116433,130.9548925654025,12002.09880065918
-37.676995063692935,130.95259341809742,12002.435989379883
-37.66551680309162,130.95029427079234,12002.774631500244
-37.65402350875016,130.94809963018295,12003.111820220947
-37.64254900658388,130.94587015400833,12003.44900894165
-37.63105947067745,130.94353617113805,12003.78910446167
-37.619588726946205,130.94134153052866,12004.126293182373
-37.60810294947482,130.9390772187888,12004.466388702393
-37.59662844730854,130.93688257817942,12004.802124023438
-37.58515018670722,130.93461826643957,12005.140766143799
-37.5736719261059,130.93235395469975,12005.47940826416
-37.56218990706955,130.93012447852513,12005.818050384521
-37.55071916333831,130.92796467348097,12006.156692504883
-37.53924466117203,130.92577003287158,12006.495334625244
-37.52777767587582,130.92350572113173,12006.833976745605
-37.51630693214457,130.92134591608757,12007.172618865967
-37.50482867154326,130.91908160434772,12007.511260986328
-37.49335792781201,130.91692179930357,12007.848449707031
-37.48189470095084,130.9147619942594,12008.18854522705
-37.470416440349524,130.91256735365005,12008.52864074707
-37.45895321348836,130.9104075486059,12008.865829467773
-37.447474952887035,130.90824774356173,12009.204471588135
-37.43601172602587,130.9060182673871,12009.544567108154
-37.42454474072966,130.90389329790818,12009.881755828857
-37.41307775543345,130.90180316399446,12010.221851348877
-37.40161452857228,130.89957368781987,12010.560493469238
-37.390140026406,130.89748355390614,12010.897682189941
-37.37868807484994,130.895323748862,12011.237777709961
-37.367232364858836,130.89316394381785,12011.576419830322
-37.3557616211276,130.8910389743389,12011.916515350342
-37.344298394266424,130.88887916929474,12012.25806427002
-37.33283516740525,130.88678903538104,12012.59670639038
-37.32138697428423,130.88469890146735,12012.935348510742
-37.309916230552986,130.8825390964232,12013.275444030762
-37.29846803743196,130.8804489625095,12013.614086151123
-37.287004810570785,130.87832399303056,12013.952728271484
-37.27554910057969,130.8762686946821,12014.292823791504
-37.26409339058859,130.87414372520317,12014.631465911865
-37.252645197467565,130.87205359128944,12014.973014831543
-37.24118948747647,130.87006796407144,12015.313110351562
-37.22973377748537,130.86790815902728,12015.651752471924
-37.21828182592931,130.86588769624404,12015.993301391602
-37.20683739124332,130.86379756233035,12016.330490112305
-37.19537792281719,130.86174226398185,12016.672039031982
-37.183933488131196,130.85972180119862,12017.012134552002
-37.1724777781401,130.85763166728492,12017.350776672363
-37.16103710188914,130.85561120450166,12017.692325592041
-37.14958515033308,130.85359074171842,12018.03242111206
-37.1381407156471,130.85157027893518,12018.371063232422
-37.12669252252607,130.8494801450215,12018.711158752441
-37.11524808784008,130.84745968223822,12019.054161071777
-37.103811170024166,130.84547405502022,12019.39134979248
-37.09236297690314,130.84352326336742,12019.735805511475
-37.08092230065218,130.84146796501895,12020.07154083252
-37.069481624401234,130.83951717336618,12020.413089752197
-37.058048465020356,130.8374967105829,12020.754638671875
-37.04660027189933,130.83547624779968,12021.094734191895
-37.03515959564838,130.8335254561469,12021.434829711914
-37.023726436267495,130.83153982892887,12021.77783203125
-37.012278243146476,130.82955420171086,12022.116474151611
-37.00085260063567,130.82760341005806,12022.458023071289
-36.98941568281975,130.8256526184053,12022.798118591309
-36.9779862818739,130.82359732005682,12023.139667510986
-36.96654936405799,130.82164652840402,12023.481216430664
-36.955112446242076,130.8197654078817,12023.821311950684
-36.9436905621663,130.81777978066367,12024.161407470703
-36.93226116122046,130.81586382457613,12024.50295639038
-36.92082800183958,130.81394786848855,12024.845958709717
-36.90939860089374,130.81203191240098,12025.184600830078
-36.89797295838293,130.81011595631344,12025.526149749756
-36.886536040567016,130.80816516466064,12025.866245269775
-36.87511415649125,130.80628404413832,12026.207794189453
-36.86369227241548,130.80436808805075,12026.550796508789
-36.85226662990467,130.8024521319632,12026.890892028809
-36.84084098739386,130.80053617587564,12027.235347747803
-36.8294303786232,130.79872472648375,12027.575443267822
-36.81800473611239,130.7968087703962,12027.915538787842
-36.806571576731514,130.79492764987387,12028.258541107178
-36.79515345109078,130.79308136491676,12028.600090026855
-36.78374660075516,130.79123507995968,12028.941638946533
-36.772324716679385,130.7893191238721,12029.283187866211
-36.76090283260362,130.787472838915,12029.624736785889
-36.74949222383296,130.7856265539579,12029.967739105225
-36.73807785662726,130.78381510456603,12030.307834625244
-36.7266672478566,130.7819339840437,12030.652290344238
-36.715256639085936,130.78008769908658,12030.9909324646
-36.70384978875031,130.77827624969473,12031.335388183594
-36.69242414623951,130.77642996473762,12031.676937103271
-36.681017295903885,130.77465335091097,12032.01848602295
-36.669606687133225,130.77287673708432,12032.361488342285
-36.658211112102705,130.7710304521272,12032.703037261963
-36.646800503332045,130.76925383830059,12033.047492980957
-36.635389894561385,130.7674423889087,12033.387588500977
-36.623979285790725,130.76566577508206,12033.730590820312
-36.6125724354551,130.7638891612554,12034.07213973999
-36.601165585119475,130.76211254742876,12034.415142059326
-36.58977752695903,130.76030109803688,12034.756690979004
-36.57837067662341,130.75852448421023,12035.09969329834
-36.56697134315786,130.7567827059488,12035.442695617676
-36.55556825125727,130.7550409276874,12035.784244537354
-36.54417267622676,130.75326431386077,12036.12724685669
-36.53277710119624,130.75155737116458,12036.470249176025
-36.52137776773069,130.74985042846836,12036.813251495361
-36.509985951135214,130.74807381464174,12037.157707214355
-36.498590376104694,130.74633203638032,12037.499256134033
-36.48719855950922,130.74462509368414,12037.84225845337
-36.47581425978381,130.74288331542272,12038.186714172363
-36.4644186847533,130.74117637272653,12038.528263092041
-36.453030626592856,130.73946943003034,12038.872718811035
-36.441635051562336,130.73779732289935,12039.214267730713
-36.430239476531824,130.73609038020317,12039.557270050049
-36.41886645211153,130.73438343750698,12039.900272369385
-36.40747839395109,130.73271133037602,12040.244728088379
-36.396090335790646,130.73103922324506,12040.589183807373
-36.38470603606524,130.7293671161141,12040.932186126709
-36.37332549477487,130.72772984454838,12041.275188446045
-36.36193367817939,130.72605773741742,12041.61819076538
-36.35054562001895,130.72442046585167,12041.961193084717
-36.339180112468725,130.72278319428594,12042.30710220337
-36.32779581274332,130.72111108715498,12042.648651123047
-36.31641902988799,130.71954348671972,12042.9945602417
-36.305053522337765,130.71787137958876,12043.337562561035
-36.29367298104739,130.716234108023,12043.68201828003
-36.28229243975702,130.7146316720225,12044.025020599365
-36.27091941533673,130.71295956489155,12044.36947631836
-36.259546390916434,130.71142680002148,12044.712478637695
-36.24817336649613,130.70978952845576,12045.058387756348
-36.23681161738095,130.70825676358572,12045.401390075684
-36.22544235139569,130.70665432758523,12045.74439239502
-36.214073085410426,130.70501705601947,12046.088848114014
-36.20270006099013,130.70348429114944,12046.433303833008
-36.19134582874502,130.70188185514894,12046.776306152344
-36.17997280432472,130.70031425471365,12047.122215270996
-36.16861105520954,130.6987814898436,12047.465217590332
-36.15724178922427,130.69721388940832,12047.811126708984
-36.14588755697916,130.69568112453828,12048.155582427979
-36.13452580786397,130.6940786885378,12048.500038146973
-36.12316781718383,130.6925110881025,12048.844493865967
-36.11180982650367,130.69104799436292,12049.188949584961
-36.10045183582352,130.68955006505809,12049.534858703613
-36.08909760357841,130.68801730018805,12049.87786102295
-36.0777433713333,130.686484535318,12050.223770141602
-36.066385380653145,130.68498660601318,12050.569679260254
-36.055031148408034,130.68348867670835,12050.914134979248
-36.043676916162916,130.68199074740355,12051.258590698242
-36.032337717657946,130.6804928180987,12051.604499816895
-36.020975968542764,130.67906455992434,12051.94750213623
-36.00963301160276,130.6775317950543,12052.293411254883
-35.99829005466275,130.6760687013147,12052.639320373535
-35.98694709772275,130.67460560757513,12052.98377609253
-35.97560414078274,130.67314251383553,12053.328231811523
-35.96425366697267,130.67171425566116,12053.674140930176
-35.95291071003266,130.67025116192158,12054.021503448486
-35.941567753092656,130.66885773931244,12054.367412567139
-35.93023231302272,130.66735981000764,12054.710414886475
-35.918881839212645,130.6659663873985,12055.056324005127
-35.90754639914272,130.66453812922413,12055.40223312378
-35.89621847594285,130.66310987104976,12055.748142242432
-35.88486800213278,130.6616816128754,12056.092597961426
-35.87353256206285,130.66028819026627,12056.438507080078
-35.86221215573306,130.65892960322236,12056.785869598389
-35.85087671566313,130.65746650948276,12057.130325317383
-35.839545034028234,130.65621242913454,12057.477687835693
-35.82822086926341,130.65471449982974,12057.822143554688
-35.81688918762852,130.65335591278583,12058.16805267334
-35.80555750599362,130.65203216130715,12058.516868591309
-35.7942333412288,130.650638738698,12058.861324310303
-35.782901659593904,130.64934982278456,12059.207233428955
-35.77158877013419,130.64799123574065,12059.554595947266
-35.76026084693433,130.64663264869677,12059.89905166626
-35.74894044060454,130.64523922608763,12060.24641418457
-35.73761627583972,130.64391547460895,12060.592323303223
-35.726299627944975,130.64259172313027,12060.938232421875
-35.71498673848526,130.64130280721682,12061.285594940186
-35.70366633215547,130.63990938460768,12061.632957458496
-35.69235344269576,130.63865530425946,12061.980319976807
-35.681040553236045,130.637366388346,12062.326229095459
-35.66972014690626,130.63607747243256,12062.672138214111
-35.65840725744655,130.6347885565191,12063.018047332764
-35.64710188485691,130.63349964060566,12063.366863250732
-35.63579651226727,130.63221072469221,12063.714225769043
-35.62448362280755,130.630956644344,12064.058681488037
-35.61317449178288,130.62970256399578,12064.407497406006
-35.601872877628274,130.6284833192128,12064.754859924316
-35.59057126347367,130.62719440329934,12065.09931564331
-35.579262132448996,130.62597515851633,12065.44813156128
-35.56796427672943,130.62468624260288,12065.79549407959
-35.55665890413979,130.62353666895035,12066.1428565979
-35.54535353155015,130.62228258860213,12066.488765716553
-35.534059434265615,130.62102850825391,12066.836128234863
-35.522761578546046,130.61980926347093,12067.184944152832
-35.51146748126152,130.61859001868794,12067.532306671143
-35.50016962554195,130.61744044503538,12067.879669189453
-35.48887928669245,130.61625603581763,12068.227031707764
-35.477585189407925,130.61507162659987,12068.574394226074
-35.46629109212339,130.61385238181686,12068.920303344727
-35.4550007532739,130.6126679725991,12069.270572662354
-35.44371793129448,130.6115532345118,12069.617935180664
-35.43243510931506,130.61033398972882,12069.965297698975
-35.42115604577067,130.6091147449458,12070.314113616943
-35.40986194848614,130.60803484242373,12070.660022735596
-35.39857912650672,130.60692010433644,12071.010292053223
-35.38730382139737,130.60577053068388,12071.357654571533
-35.37600972411284,130.60462095703136,12071.705017089844
-35.364738177438525,130.60350621894403,12072.05528640747
-35.353455355459104,130.60242631642197,12072.402648925781
-35.342180050349754,130.60127674276944,12072.750011444092
-35.33090474524041,130.60019684024735,12073.100280761719
-35.31963695700113,130.59904726659482,12073.44764328003
-35.30835413502171,130.59800219963796,12073.79500579834
-35.297086346782436,130.5969222971159,12074.143821716309
-35.28581855854316,130.59577272346334,12074.492637634277
-35.27454325343381,130.5947276565065,12074.841453552246
-35.263279223629574,130.59368258954964,12075.190269470215
-35.25201519382533,130.59260268702758,12075.540538787842
-35.240747405586056,130.59159245563595,12075.886447906494
-35.22948337578182,130.59054738867908,12076.23817062378
-35.218223104412615,130.58946748615702,12076.58553314209
-35.2069515577383,130.58849209033062,12076.934349060059
-35.19570256167421,130.58744702337378,12077.284618377686
-35.18443853186997,130.58643679198215,12077.631980895996
-35.17319329424091,130.58535688946006,12077.980796813965
-35.16193302287171,130.58438149363369,12078.329612731934
-35.15068026837258,130.58337126224205,12078.681335449219
-35.139431272308485,130.58239586641565,12079.02869796753
-35.12816724250425,130.58142047058928,12079.378967285156
-35.116914488005115,130.58041023919765,12079.727783203125
-35.10566925037606,130.57946967893648,12080.076599121094
-35.09442777118204,130.57849428311008,12080.425415039062
-35.08318629198802,130.5775188872837,12080.77568435669
-35.07193353748889,130.57650865589207,12081.127407073975
-35.060695816729904,130.57563776676136,12081.473316192627
-35.04945057910085,130.5746972065002,12081.827945709229
-35.038205341471794,130.5737218106738,12082.175308227539
-35.02696010384273,130.57281608597788,12082.525577545166
-35.01572614151878,130.5718755257167,12082.877300262451
-35.00449217919484,130.57096980102077,12083.22611618042
-34.99325445843586,130.5700292407596,12083.574932098389
-34.98202425454694,130.5691583516289,12083.926654815674
-34.97079029222299,130.56825262693295,12084.275470733643
-34.95955632989905,130.56738173780224,12084.62574005127
-34.9483223675751,130.56644117754107,12084.976009368896
-34.937107197426336,130.5656051239756,12085.326278686523
-34.92587323510239,130.5647690704101,12085.67654800415
-34.91463927277844,130.56386334571417,12086.028270721436
-34.90342786106471,130.5630272921487,12086.378540039062
-34.89220517404587,130.56215640301798,12086.727355957031
-34.88098248702703,130.5613203494525,12087.080532073975
-34.86976355844323,130.56051913145225,12087.430801391602
-34.85854462985943,130.55968307788677,12087.781070709229
-34.847329459710664,130.55881218875606,12088.132793426514
-34.83610301425679,130.55801097075582,12088.481609344482
-34.82489160254306,130.55720975275557,12088.833332061768
-34.81367267395926,130.55640853475532,12089.183601379395
-34.80247629598568,130.55564215232027,12089.53532409668
-34.79126112583691,130.5548060987548,12089.884140014648
-34.780053472558215,130.55403971631978,12090.237316131592
-34.76884581927953,130.55330816945,12090.589038848877
-34.75763816600083,130.55250695144974,12090.939308166504
-34.74643051272214,130.5517405690147,12091.291030883789
-34.735230376313524,130.55104385771014,12091.642753601074
-34.72404527364505,130.55020780414466,12091.99447631836
-34.712826345061245,130.5495110928401,12092.344745635986
-34.70162996708766,130.5487795459703,12092.695014953613
-34.690429830679044,130.5480479991005,12093.048191070557
-34.679237211140496,130.54731645223072,12093.398460388184
-34.66804459160195,130.54661974092613,12093.753089904785
-34.6568519720634,130.54592302962158,12094.103359222412
-34.64565935252486,130.5451914827518,12094.456535339355
-34.63447049142135,130.54456444257767,12094.806804656982
-34.6232778718828,130.54383289570788,12095.159980773926
-34.61209652764936,130.54317101996853,12095.510250091553
-34.600911424980886,130.54247430866397,12095.863426208496
-34.589726322312416,130.54184726848985,12096.21660232544
-34.57854497807897,130.5411505571853,12096.566871643066
-34.56735235854043,130.5405583525764,12096.92004776001
-34.55617101430699,130.53986164127184,12097.273223876953
-34.5450047038137,130.53923460109772,12097.62349319458
-34.53382335958026,130.5385727253584,12097.978122711182
-34.52266080752201,130.5379805207495,12098.331298828125
-34.51147946328857,130.5373534805754,12098.68302154541
-34.50030187749017,130.5367612759665,12099.034744262695
-34.489139325431914,130.53616907135762,12099.387920379639
-34.477969256503584,130.53557686674876,12099.738189697266
-34.4668029460103,130.53494982657463,12100.092819213867
-34.455636635517,130.534392457531,12100.447448730469
-34.444470325023715,130.53383508848734,12100.799171447754
-34.433307772965456,130.5332080483132,12101.152347564697
-34.422145220907204,130.53268551483478,12101.504070281982
-34.41099018571902,130.53212814579115,12101.858699798584
-34.39982387522573,130.5315707767475,12102.211875915527
-34.38867635690762,130.53104824326905,12102.563598632812
-34.3775175632844,130.53052570979062,12102.918228149414
-34.36637004496629,130.529968340747,12103.2699508667
-34.35521500977811,130.52944580726856,12103.626033782959
-34.344059974589925,130.52895810935536,12103.977756500244
-34.33291245627182,130.52843557587693,12104.32947921753
-34.32176493795371,130.52798271352896,12104.685562133789
-34.31062493650567,130.52742534448532,12105.038738250732
-34.299477418187564,130.52697248213735,12105.391914367676
-34.28832989986945,130.52648478422415,12105.746543884277
-34.277193656856454,130.52603192187618,12106.09972000122
-34.26605365540841,130.52554422396298,12106.454349517822
-34.254909895525344,130.52512619718024,12106.808979034424
-34.24376989407731,130.52467333483227,12107.163608551025
-34.23264492636942,130.5242204724843,12107.51533126831
-34.221512441791454,130.52380244570156,12107.87141418457
-34.21036492347334,130.5233495833536,12108.226043701172
-34.19924747263553,130.52300122770131,12108.579219818115
-34.18811498805756,130.52254836535334,12108.933849334717
-34.1769825034796,130.52216517413584,12109.288478851318
-34.16586129420674,130.5217471473531,12109.641654968262
-34.154736326498856,130.5213639561356,12109.996284484863
-34.143622634096076,130.52098076491808,12110.352367401123
-34.13249766638818,130.52059757370054,12110.706996917725
-34.12138021555037,130.52021438248303,12111.061626434326
-34.110255247842474,130.51986602683075,12111.41480255127
-34.09914531387473,130.51944800004802,12111.77088546753
-34.088035379906984,130.51913447996097,12112.126968383789
-34.07692544593924,130.51882095987392,12112.480144500732
-34.06580799510142,130.51850743978684,12112.836227416992
-34.05469806113368,130.51812424856934,12113.190856933594
-34.04359188560097,130.51788039961275,12113.545486450195
-34.03248571006826,130.51753204396047,12113.901569366455
-34.02137201766548,130.51725335943863,12114.256198883057
-34.010273359002845,130.51690500378635,12114.610828399658
-33.99917094190517,130.51666115482976,12114.969818115234
-33.98807604167757,130.51638247030792,12115.322994232178
-33.9769736245799,130.51606895022087,12115.680530548096
-33.9658787243523,130.51579026569905,12116.033706665039
-33.95478758255974,130.51558125230767,12116.389789581299
