Latitude,Longitude,Altitude (m)
-38.27315802917456,130.34135117281804,12032.127490997314
-38.26160459987252,130.3379547052083,12032.456686019897
-38.250043653700395,130.33452340203328,12032.788061141968
-38.238505258138495,130.33103984551045,12033.115076065063
-38.22694431196638,130.3276607956833,12033.448631286621
-38.21539464109937,130.32412498581263,12033.777826309204
-38.20384497023236,130.32072851820286,12034.109201431274
-38.19228778249528,130.31729721502785,12034.438396453857
-38.18075314536841,130.3139007474181,12034.770498275757
-38.169199716066366,130.31041719089527,12035.101873397827
-38.157646286764326,130.30693363437243,12035.433975219727
-38.14610037433235,130.30355458454528,12035.759536743164
-38.13455446190038,130.30008844580505,12036.093091964722
-38.12300103259833,130.29662230706484,12036.423740386963
-38.1114588786014,130.2932606750203,12036.752935409546
-38.099901690864314,130.28979453628008,12037.087944030762
-38.08835953686737,130.28634581532248,12037.417139053345
-38.07680986600037,130.28291451214747,12037.748514175415
-38.06526395356839,130.27944837340726,12038.081342697144
-38.05372555800649,130.27603448801486,12038.411991119385
-38.042175887139486,130.27258576705725,12038.744092941284
-38.03062997470751,130.26917188166487,12039.075468063354
-38.019080303840504,130.2657579962725,12039.409749984741
-38.00753814984356,130.26232669309752,12039.737491607666
-37.99599223741159,130.25886055435728,12040.070320129395
-37.98445384184969,130.25549892231277,12040.403148651123
-37.972907929417715,130.252102454703,12040.733797073364
-37.961362016985746,130.24872340487585,12041.06880569458
-37.94981986298881,130.24530951948347,12041.40090751648
-37.93827770899187,130.2417911273954,12041.730829238892
-37.9267317965599,130.23837724200303,12042.066564559937
-37.915197159433035,130.23503302774108,12042.396486282349
-37.903651247001065,130.2316191423487,12042.730768203735
-37.89210909300412,130.2282575103042,12043.062870025635
-37.88056693900719,130.22482620712918,12043.396425247192
-37.86902854344529,130.22134265060635,12043.727800369263
-37.85749014788339,130.21799843634443,12044.059902191162
-37.845947993886455,130.21458455095205,12044.39273071289
-37.83440583988952,130.21110099442922,12044.727012634277
-37.822871202762656,130.2077567801673,12045.061294555664
-37.811329048765714,130.2043080592097,12045.392669677734
-37.79979441163885,130.20092900938252,12045.726224899292
-37.78825601607695,130.19751512399014,12046.05978012085
-37.77672889582016,130.19417090972823,12046.393335342407
-37.765182983388186,130.19075702433585,12046.729070663452
-37.75364834626132,130.18734313894348,12047.059719085693
-37.74210619226439,130.18396408911633,12047.396907806396
-37.730575313572565,130.18058503928918,12047.728282928467
-37.71903691801066,130.17713631833158,12048.061111450195
-37.70750979775387,130.17379210406963,12048.39757347107
-37.69597516062701,130.1703956364599,12048.729675292969
-37.68444052350014,130.16701658663274,12049.065410614014
-37.672909644808314,130.16362011902297,12049.398965835571
-37.661371249246415,130.16024106919582,12049.734701156616
-37.64984412898963,130.15682718380344,12050.066076278687
-37.638317008732834,130.15344813397627,12050.401811599731
-37.6267748547359,130.15010391971435,12050.737546920776
-37.61525525134918,130.14665519875675,12051.069648742676
-37.60372061422232,130.14331098449483,12051.407564163208
-37.592185977095454,130.1399319346677,12051.741119384766
-37.580655098403625,130.13657030262314,12052.074674606323
-37.56912797814684,130.13310416388293,12052.411863327026
-37.55759709945501,130.12982962075145,12052.744691848755
-37.54607373763326,130.1264505709243,12053.0804271698
-37.53454285894143,130.1230192677493,12053.416162490845
-37.52301949711967,130.11969247127,12053.75117111206
-37.51148485999281,130.1163656747907,12054.085453033447
-37.49996901504113,130.1129343716157,12054.421188354492
-37.48843437791427,130.10959015735378,12054.756196975708
-37.476918532962586,130.10624594309186,12055.093385696411
-37.46538765427076,130.10288431104732,12055.427667617798
-37.453864292449,130.099557514568,12055.764856338501
-37.44234468906228,130.0961958825235,12056.099138259888
-37.43081005193542,130.0927994149137,12056.435600280762
-37.41929796541878,130.0894552006518,12056.770608901978
-37.40777460359702,130.08605873304202,12057.109251022339
-37.39625124177527,130.08267968321488,12057.442079544067
-37.38473915525862,130.07942255786602,12057.782175064087
-37.37320075969672,130.07600867247365,12058.116456985474
-37.361681156310006,130.07269929377694,12058.452192306519
-37.35016906979336,130.06933766173242,12058.79083442688
-37.33865322484168,130.0659934474705,12059.125843048096
-37.32713362145496,130.06259697986073,12059.46230506897
-37.31561401806824,130.0592527655988,12059.798767089844
-37.30409065624649,130.05596080468473,12060.136682510376
-37.29257856972984,130.05259917264019,12060.47241783142
-37.28105520790809,130.04923754059564,12060.810333251953
-37.26954312139144,130.04591074411636,12061.148248672485
-37.25802727643976,130.04260136541964,12061.483257293701
-37.246515189923116,130.0392223155925,12061.82407951355
-37.234999344971435,130.03587810133058,12062.159088134766
-37.22348725845479,130.03253388706867,12062.49555015564
-37.21196765506807,130.0292767617198,12062.837099075317
-37.200455568551426,130.0259499652405,12063.171380996704
-37.18894348203478,130.02260575097858,12063.510023117065
-37.1774276370831,130.0192267011514,12063.848665237427
-37.1659305843066,130.01596957580256,12064.18585395813
-37.15439970561477,130.01260794375804,12064.523042678833
-37.14290265283827,130.00931598284396,12064.862411499023
-37.131390566321635,130.00591951523418,12065.198873519897
-37.119874721369946,130.0026101365375,12065.538242340088
-37.10837391015841,129.99933559340602,12065.87615776062
-37.09686182364177,129.9959913791441,12066.213346481323
-37.08536477086527,129.99261232931696,12066.552715301514
-37.07384892591359,129.98930295062027,12066.891357421875
-37.06234059783198,129.9860109897062,12067.229272842407
-37.05083226975037,129.9827190287921,12067.570095062256
-37.03933145853884,129.97944448566062,12067.905103683472
-37.02782313045723,129.9761002713987,12068.24665260315
-37.01631480237562,129.97287798161508,12068.58529472351
-37.004821508034155,129.96948151400534,12068.922483444214
-36.99332069682262,129.96620697087386,12069.264032363892
-36.98181988561109,129.9628279210467,12069.601221084595
-36.97031531596451,129.95953596013263,12069.942770004272
-36.958818263188014,129.95626141700117,12070.281412124634
-36.94731369354144,129.95300429165232,12070.621507644653
-36.93581664076494,129.94966007739038,12070.959423065186
-36.92430831268334,129.9463506986937,12071.300245285034
-36.912815018341874,129.9430587377796,12071.640340805054
-36.90131420713033,129.93974935908292,12071.978982925415
-36.88982091278887,129.9365270692993,12072.319078445435
-36.87832010157734,129.9331828550374,12072.659900665283
-36.86683432410595,129.92987347634067,12072.997816085815
-36.85533351289441,129.92661635099182,12073.340818405151
-36.84384021855295,129.92335922564297,12073.679460525513
-36.832339407341415,129.92003242916368,12074.02100944519
-36.82084611299995,129.9167404682496,12074.36037826538
-36.80934530178842,129.9134310895529,12074.7004737854
-36.7978670411871,129.9102262175519,12075.04056930542
-36.7863699884106,129.90691683885518,12075.382118225098
-36.77488796937425,129.90367713128896,12075.722940444946
-36.76337212442257,129.90033291702704,12076.063762664795
-36.75190138069132,129.8970932094608,12076.404584884644
-36.74040808634986,129.89385350189457,12076.745407104492
-36.72891855044343,129.89050928763263,12077.08622932434
-36.717429014537004,129.88730441563163,12077.42705154419
-36.70593947863058,129.88402987250015,12077.769327163696
-36.694457459594226,129.8807553293687,12078.110876083374
-36.68297168212284,129.877445950672,12078.450971603394
-36.67148214621641,129.874241078671,12078.792520523071
-36.660000127180055,129.8709316999743,12079.136249542236
-36.648525625013775,129.86765715684282,12079.474891662598
-36.637043605977425,129.8643129425809,12079.82080078125
-36.62555031163596,129.86114290614515,12080.16016960144
-36.61406453416457,129.85786836301367,12080.503171920776
-36.602593790433325,129.85466349101267,12080.843994140625
-36.59110801296194,129.85142378344642,12081.186996459961
-36.57962223549055,129.84814924031497,12081.528545379639
-36.56814773332427,129.84483986161825,12081.870094299316
-36.55666571428792,129.84163498961726,12082.213823318481
-36.54519497055667,129.83836044648578,12082.55537223816
-36.53371670995535,129.83513815670216,12082.898374557495
-36.52224596622411,129.83191586691854,12083.24210357666
-36.51076770562279,129.8286761593523,12083.582925796509
-36.499281928151404,129.82540161622083,12083.928834915161
-36.48781870129023,129.8221619086546,12084.26965713501
-36.476340440688915,129.81888736552312,12084.611932754517
-36.46486969695767,129.81568249352213,12084.957841873169
-36.453391436356355,129.8124776215211,12085.297937393188
-36.44192820949518,129.80918566060703,12085.642393112183
-36.430449948893866,129.8059633708234,12085.985395431519
-36.41897920516262,129.80272366325718,12086.328397750854
-36.40751597830145,129.79957104460402,12086.67212677002
-36.39604523457021,129.79627908368994,12087.015855789185
-36.38457073240393,129.7930393761237,12087.360311508179
-36.373107505542755,129.7898345041227,12087.703313827515
-36.36163676181151,129.78661221433907,12088.04631614685
-36.3501697765153,129.78338992455545,12088.390045166016
-36.33871030808917,129.78018505255443,12088.735227584839
-36.32724332279296,129.7769453449882,12089.078229904175
-36.31578385436683,129.77370563742195,12089.424865722656
-36.30431686907062,129.7705704365514,12089.768594741821
-36.292857400644486,129.76729589341994,12090.111597061157
-36.28139793221835,129.76409102141892,12090.45750617981
-36.26993470535718,129.76088614941793,12090.800508499146
-36.25847899536608,129.7576812774169,12091.14496421814
-36.24701576850491,129.75444156985068,12091.490873336792
-36.23556005851381,129.75123669784966,12091.836782455444
-36.224104348522715,129.74803182584867,12092.18051147461
-36.21264112166154,129.74482695384765,12092.525693893433
-36.201177894800374,129.74163949962926,12092.873056411743
-36.18972594324431,129.73846946319347,12093.213878631592
-36.17828150855832,129.73524717340985,12093.561967849731
-36.16681828169715,129.73207713697406,12093.907876968384
-36.155366330141085,129.72885484719043,12094.25087928772
-36.143918137020066,129.72566739297204,12094.599695205688
-36.13245866859393,129.72244510318842,12094.942697525024
-36.1210104754729,129.71929248453526,12095.288606643677
-36.10956979922195,129.71608761253427,12095.635242462158
-36.09811784766589,129.71290015831585,12095.979698181152
-36.0866734129799,129.70969528631485,12096.326333999634
-36.07522521985887,129.70650783209646,12096.672243118286
-36.063769509867775,129.70330296009544,12097.018152236938
-36.052325075181784,129.7002025947901,12097.36478805542
-36.04088815736587,129.6969803050065,12097.711423873901
-36.02944372267988,129.69382768635333,12098.058059692383
-36.017999287993895,129.69065764991754,12098.403242111206
-36.006554853307904,129.68747019569915,12098.749877929688
-35.99511793549199,129.68426532369816,12099.096513748169
-35.98366222550089,129.68118237617543,12099.44387626648
-35.97222906612001,129.67790783304397,12099.790512084961
-35.96078087299899,129.67477263217341,12100.137147903442
-35.94935523048818,129.67160259573765,12100.485237121582
-35.937914554237224,129.66843255930186,12100.830419540405
-35.926473877986275,129.6652973584313,12101.180688858032
-35.9150407186054,129.66205765086508,12101.525144577026
-35.90361131765955,129.65895728555975,12101.873960494995
-35.89217439984363,129.6558046669066,12102.222776412964
-35.880733723592684,129.6526346304708,12102.567958831787
-35.869308081081876,129.64948201181764,12102.916774749756
-35.85786740483093,129.64634681094708,12103.264863967896
-35.84644176232012,129.6431767745113,12103.612953186035
-35.83500108606916,129.6399893202929,12103.959589004517
-35.82358296042843,129.63683670163974,12104.309131622314
-35.812157317917624,129.6337363363344,12104.657947540283
-35.800731675406816,129.63056629989865,12105.002403259277
-35.78929851602594,129.6274310990281,12105.354852676392
-35.777869115080094,129.62429589815753,12105.700035095215
-35.76643971413425,129.62116069728697,12106.048124313354
-35.75502158849352,129.6180080786338,12106.39984703064
-35.74359594598271,129.61490771332848,12106.744302749634
-35.73217782034198,129.6117202591101,12107.09457206726
-35.720763453136286,129.6086373115874,12107.44338798523
-35.7093302937554,129.60550211071683,12107.79147720337
-35.697915926549705,129.60234949206367,12108.141019821167
-35.686497800908974,129.59923170897574,12108.491289138794
-35.675079675268236,129.59609650810518,12108.838651657104
-35.66365779119247,129.59301356058248,12109.188920974731
-35.652250940856845,129.5898435241467,12109.537010192871
-35.64082529834604,129.58674315884136,12109.887279510498
-35.62942220644545,129.58353828684037,12110.236822128296
-35.61799656393464,129.58057726379593,12110.586364746094
-35.60658595516398,129.57740722736017,12110.935907363892
-35.595182863263396,129.57430686205484,12111.286176681519
-35.58376097918762,129.57113682561905,12111.635719299316
-35.572354128852,129.56810613144418,12111.986715316772
-35.56094352008134,129.56493609500842,12112.335531234741
-35.54954042818075,129.5618357297031,12112.68434715271
-35.53812230254002,129.55875278218036,12113.036796569824
-35.526726727509505,129.55566983465766,12113.384159088135
-35.51531611873884,129.55246496265667,12113.736608505249
-35.503913026838255,129.54939943291657,12114.085424423218
-35.492502418067595,129.54629906761124,12114.437873840332
-35.481106843037075,129.5433032090016,12114.788143157959
-35.469696234266415,129.5400983370006,12115.139139175415
-35.45830817610597,129.53706764282572,12115.489408493042
-35.44691260107546,129.5339672775204,12115.83895111084
-35.43550950917487,129.53083207664986,12116.19430732727
-35.424102658839246,129.52776654690976,12116.54312324524
-35.41271835911384,129.5246487638218,12116.892665863037
-35.401311508778214,129.5215658162991,12117.24656867981
-35.38990841687763,129.51846545099377,12117.596111297607
-35.378524117152224,129.51536508568844,12117.95001411438
-35.367121025251635,129.51229955594837,12118.299556732178
-35.35573296709119,129.50923402620828,12118.651279449463
-35.34433739206068,129.5062033320334,12119.003728866577
-35.332960609205344,129.50310296672808,12119.355451583862
-35.32156879260987,129.50000260142275,12119.70572090149
-35.310173217579354,129.4970067428131,12120.058897018433
-35.29879267628898,129.49388895972518,12120.40916633606
-35.28740461812854,129.49084084776769,12120.763069152832
-35.27602407683817,129.4877753180276,12121.114791870117
-35.26463601867773,129.48474462385272,12121.466514587402
-35.253247960517285,129.48164425854742,12121.817510604858
-35.24186741922692,129.47861356437255,12122.17214012146
-35.230483119501514,129.47544352793676,12122.523136138916
-35.21909130290604,129.47248250489235,12122.877765655518
-35.20773331222588,129.46938213958703,12123.228761672974
-35.19634525406544,129.46642111654262,12123.580484390259
-35.18497222964515,129.4633033334547,12123.937294006348
-35.17358792991974,129.4602378037146,12124.288290023804
-35.162211147064404,129.4571896917571,12124.641466140747
-35.15084563951418,129.45419383314746,12124.993915557861
-35.13946885665885,129.4511631389726,12125.347818374634
-35.12809959067359,129.44806277366726,12125.700994491577
-35.1167265662533,129.4450320794924,12126.05417060852
-35.10534602496293,129.44200138531752,12126.408800125122
-35.0939805174127,129.43895327336006,12126.759796142578
-35.082611251427444,129.4359051614026,12127.115152359009
-35.071249502312256,129.43290930279292,12127.46978187561
-35.059880236327,129.42982635527022,12127.822957992554
-35.04851097034174,129.42677824331275,12128.178314208984
-35.037145462791514,129.42381722026835,12128.53003692627
-35.025783713676326,129.42078652609348,12128.88611984253
-35.01442572299617,129.41773841413598,12129.238569259644
-35.00305645701091,129.41475997330895,12129.593925476074
-34.99169094946069,129.4117292791341,12129.947828292847
-34.980332958780544,129.40869858495924,12130.302457809448
-34.96899000184054,129.40568530856697,12130.657814025879
-34.95762073585528,129.4026371966095,12131.010990142822
-34.94626650361016,129.39967617356507,12131.364892959595
-34.934916029800085,129.3966454793902,12131.722429275513
-34.92355803911993,129.39361478521533,12132.075605392456
-34.912200048439786,129.3906015088231,12132.431688308716
-34.90085709149978,129.3876404857787,12132.78486442566
-34.889506617689705,129.38455753825596,12133.142400741577
-34.878167419184734,129.38161393299418,12133.494850158691
-34.866805670069546,129.37860065660192,12133.85165977478
-34.85545519625947,129.37556996242705,12134.20774269104
-34.8441159977545,129.37259152160004,12134.562372207642
-34.832765523944424,129.3695956629904,12134.918455123901
-34.821426325439454,129.36661722216337,12135.273084640503
-34.81007585162938,129.3635865279885,12135.629894256592
-34.79873289468937,129.3606429227267,12135.98670387268
-34.78739745461944,129.35762964633446,12136.34278678894
-34.77605449767944,129.3545989521596,12136.696689605713
-34.764719057609504,129.35167276468042,12137.05422592163
-34.753372342234464,129.34869432385338,12137.409582138062
-34.74202938529446,129.3457681363742,12137.765665054321
-34.730705220529636,129.34265035328627,12138.12320137024
-34.71937729732978,129.3397590013723,12138.479284286499
-34.70803434038977,129.33676314276266,12138.835367202759
-34.69669890031984,129.33376728415303,12139.194356918335
-34.68537097711998,129.33084109667385,12139.549713134766
-34.67403553705005,129.32788007362944,12139.905796051025
-34.662715130720265,129.3249016328024,12140.264059066772
-34.65138720752041,129.32199286310583,12140.619415283203
-34.64005176745047,129.31896216893097,12140.97767829895
-34.62872760268565,129.3160185636692,12141.334487915039
-34.61740343792083,129.31304012284215,12141.692024230957
-34.60607551472097,129.31007909979775,12142.048833847046
-34.59475510839118,129.30715291231857,12142.407096862793
-34.58343094362636,129.3041222181437,12142.763906478882
-34.57212181260169,129.30126570179496,12143.119262695312
-34.5608014062719,129.29828726096795,12143.478252410889
-34.54947724150708,129.29537849127138,12143.836515426636
-34.53816435204736,129.29238263266174,12144.195505142212
-34.526847704152615,129.2894912807478,12144.550861358643
-34.51552729782283,129.28651283992076,12144.910577774048
-34.50422192523319,129.28356923465896,12145.268114089966
-34.4929015189034,129.2806604649624,12145.625650405884
-34.48159614631376,129.2777168597006,12145.986093521118
-34.47027949841901,129.27473841887357,12146.342176437378
-34.45898164269944,129.27182964917702,12146.701166152954
-34.4476649948047,129.26893829726305,12147.062335968018
-34.43635962221506,129.26597727421864,12147.418418884277
-34.42506176649549,129.26301625117424,12147.778135299683
-34.41374887703577,129.2601248992603,12148.1356716156
-34.40245853818628,129.2571987117811,12148.496114730835
-34.39115316559664,129.2542551065193,12148.853651046753
-34.379847793007,129.25132891904013,12149.214094161987
-34.36854993728743,129.2484549849088,12149.573083877563
-34.357252081567864,129.24545912629915,12149.930620193481
-34.34595798428333,129.2426026099504,12150.291790008545
-34.33465637012873,129.23965900468863,12150.650779724121
-34.323358514409165,129.23681990612252,12151.009769439697
-34.312075692429744,129.23387630086071,12151.369485855103
-34.300777836710175,129.23098494894677,12151.728475570679
-34.28948749786068,129.22804134368496,12152.088918685913
-34.278204675881256,129.22520224511885,12152.44718170166
-34.266906820161694,129.22229347542228,12152.808351516724
-34.255616481312195,129.21938470572573,12153.1673412323
