Latitude,Longitude,Altitude (m)
-10.838096692706035,15.583767745518768,11629.65535686493
-10.826832452620172,15.582935871859174,11629.888845520021
-10.81555154175072,15.582138258406827,11630.125081100465
-10.80425916971755,15.581372665932493,11630.36543706894
-10.792951168824768,15.580636631284017,11630.604419574738
-10.781632748692243,15.579926123848784,11630.844775543213
-10.770303909319974,15.579238680474639,11631.086504974366
-10.758963608783988,15.578572061932347,11631.329607868196
-10.747609763236337,15.577921565840525,11631.574084224701
-10.736250708068814,15.577285624738709,11631.819934043886
-10.724879149813601,15.576659312322588,11632.065783863069
-10.713499256166594,15.576040389362934,11632.314380607606
-10.702115194823689,15.575425273092973,11632.562977352143
-10.69072279808899,15.574811948206397,11632.814321022035
-10.679324149810444,15.574196160167668,11633.06429122925
-10.66792029191203,15.573575221901704,11633.318381824494
-10.656508098621819,15.572945102795892,11633.573845882416
-10.645094863407634,15.572303563620995,11633.82930994034
-10.633675376649604,15.571647021610248,11634.087520923616
-10.622257973739522,15.570971893996877,11634.345731906891
-10.610834319285596,15.570276165474572,11634.606689815522
-10.599412748679617,15.569555581507796,11634.86902118683
-10.587987010377741,15.568807678944394,11635.134099483492
-10.576563355923813,15.568029098940515,11635.399177780153
-10.565141785317834,15.567215586960621,11635.667003002169
-10.553720214711856,15.566365351621327,11635.934828224183
-10.542298644105877,15.56547481015586,11636.20677383423
-10.530881241195797,15.564541051566223,11636.480092906953
-10.51947008982956,15.563559821316872,11636.754785442354
-10.508061022311272,15.562528656255653,11637.032224903109
-10.496656122488883,15.561444869307486,11637.312411289216
-10.485259558058287,15.560304877705605,11637.592597675324
-10.473867161323588,15.559105098683235,11637.876904449464
-10.462483099980682,15.557842621242376,11638.16258468628
-10.451105290181623,15.556514982230874,11638.45101184845
-10.439737899622306,15.555117927113187,11638.740812473297
-10.428376760606836,15.553647873122545,11639.033360023499
-10.417032292374953,15.552103700644333,11639.328654499055
-10.405690949914995,15.550478915913777,11639.628069362641
-10.394362110542726,15.548774414622573,11639.928857688905
-10.383046816182123,15.546984598697637,11640.231019477846
-10.37174610875716,15.545105885372202,11640.537301654816
-10.360457904419889,15.543136931108727,11640.846330757142
-10.349181161246333,15.541072585679979,11641.158106784822
-10.337923172704315,15.538910833779651,11641.472629737855
-10.326678729173963,15.536648092640972,11641.789899616242
-10.315450956427199,15.534281227343016,11642.111289882661
-10.304235686768127,15.531807102964859,11642.435427074433
-10.293045423284436,15.529222360662654,11642.76231119156
-10.281869746736385,15.526524985130091,11643.091942234041
-10.270701363656155,15.523712065369171,11643.663302707673
-10.259545483663617,15.520782481765277,11644.393984851838
-10.248409400226588,15.517734666857947,11645.205701293946
-10.237298322964943,15.514567277109641,11646.05587469101
-10.226218503422526,15.511276953676514,11646.928023490907
-10.21518036083908,15.507859889868868,11647.820774230959
-10.204184937138578,15.504310487613626,11648.72725959778
-10.193241609636791,15.500620237839708,11649.651599979401
-10.182363923345383,15.496780855398956,11650.592421913148
-10.171559171732174,15.492783831220288,11651.555219249727
-10.161201405503927,15.488566914731063,11644.991441116334
-10.151156216467964,15.484210270337776,11633.547750091553
-10.141186045958147,15.479787568682154,11619.749944038393
-10.13114294077013,15.475312692985431,11604.937149066925
-10.12099876895661,15.470757205036367,11589.701327590943
-10.110777494768994,15.466082814015095,11574.281462116243
-10.100539549797789,15.461255259714374,11558.777815418245
-10.090339114089659,15.456248790998034,11543.23571176529
-10.080206403439856,15.451049300721918,11527.681246948243
-10.070179969035427,15.445650966890025,11512.124035205843
-10.060269188192144,15.440051102427272,11496.577811164858
-10.050486563997698,15.434251722639972,11481.048755407335
-10.040835222224008,15.428255066757353,11465.545108709337
-10.031314120947103,15.42206471754619,11450.070991458893
-10.021928469786854,15.41568269031279,11434.635331163408
-10.012669933351466,15.409114135284385,11419.238127822877
-10.00354580510876,15.402361963458976,11403.886248750689
-9.994546707742964,15.395428861911642,11388.581754140854
-9.985677850873953,15.388316398102846,11373.32807765007
-9.976932982957882,15.381029946182743,11358.12796620369
-9.968313145918723,15.373570849688871,11342.986913652421
-9.959817297832503,15.365942691388003,11327.902859802247
-9.951433977535503,15.35814838227814,11312.884045429231
-9.943177771963365,15.350191057280206,11297.925663414002
-9.9350320103325,15.342072731700508,11283.036641263963
-9.927000860338806,15.333796988305819,11268.21354532242
-9.919089531602152,15.325366962017062,11253.459122514725
-9.911284479110874,15.316785115986393,11238.777493228914
-9.903588828636895,15.308055032980583,11224.169344196322
-9.89600883172406,15.299177608691323,11209.63398868561
-9.88852990143673,15.290158441191695,11195.17554708481
-9.881157247394775,15.280999097942159,11180.794019393921
-9.873885659978326,15.27170271386364,11166.489405612947
-9.866717223035328,15.26227152818537,11152.264452667237
-9.859645685021938,15.25270979544289,11138.119160556795
-9.852676255558029,15.24301975486543,11124.055589475633
-9.845799557327828,15.23320431745099,11110.073739423753
-9.839017674179285,15.223266842043422,11096.176357326509
-9.832331648036376,15.213210015717802,11082.35932279587
-9.825732101583332,15.203036749472131,11068.626069488526
-9.819228412135923,15.192749730381488,11054.980031061174
-9.812805992758504,15.182352541212643,11041.420520782473
-9.806469011146977,15.171847645117749,11027.94822538376
-9.80021746730134,15.161238177017735,11014.56657852173
-9.794047193525696,15.150527495756444,11001.272833271029
-9.787957147896071,15.139718736254803,10988.068363094331
-9.781946288488491,15.128813689896196,10974.953854722979
-9.776013573378982,15.117816387293244,10961.935488739015
-9.770151709099723,15.106729067675174,10949.029059963228
-9.764367989118535,15.09555542577022,10936.290880365374
-9.758649910347726,15.084298708460768,10923.598025035859
-9.75300580817909,15.072961938706282,10910.947060317994
-9.747427347220833,15.061547019851607,10898.33729948044
-9.74191556939693,15.050057310740591,10885.770115985872
-9.736464223163535,15.03849594629416,10873.244136371613
-9.731077476216544,15.026866733202008,10860.759360637667
-9.725751160860062,15.015172806385056,10848.313728590012
-9.720483193246139,15.003415509380847,10835.907926959993
-9.715271489526826,14.991599096724922,10823.540582284928
-9.710118133550072,14.979726479415278,10811.211694564821
-9.705008538380238,14.967800120604073,10798.917830142977
-9.699959374800912,14.955823715019537,10786.662422676087
-9.694951888180556,14.943800173659675,10774.441351776124
-9.689995455834941,14.931732631445406,10762.254617443086
-9.685082784296245,14.919623327605969,10750.102219676972
-9.680218041260364,14.907476292753975,10737.98141155243
-9.67538872363961,14.895294549848888,10725.893566532137
-9.670603166825776,14.883080450081403,10713.836624422074
-9.665857203122963,14.870837688179751,10701.807151565552
-9.661141455215404,14.858568951219013,10689.807208156586
-9.656463216570918,14.846277821965955,10677.834047269822
-9.651814151797714,14.833966987495659,10665.88698217392
-9.647198428591684,14.821639470767586,10653.963952674867
-9.64261292118091,14.809298518664123,10642.06495877266
-9.63805033609757,14.796945474722808,10630.185193347932
-9.633511715265637,14.78458660878549,10618.326716594696
-9.628998100609087,14.772223152428248,10606.486094856264
-9.624503240584074,14.759858352533467,10594.66332813263
-9.620029219038546,14.747495120099147,10582.854982767107
-9.61556978442866,14.735137597699369,10571.058311834337
-9.61112702060236,14.722787688678979,10559.274688796999
-9.606697801787726,14.710448863843286,10547.499306535721
-9.602275876440912,14.698124929881985,10535.732165050507
-9.597867496105764,14.68581779013992,10523.969830684662
-9.593462241542538,14.673531251306787,10512.208869781496
-9.589063238523158,14.66126822438059,10500.45134253502
-9.584668403199675,14.649032851935404,10488.69106836319
-9.580271484028245,14.636826141624383,10476.92736053467
-9.575880816400659,14.624652683867454,10465.156785392763
-9.57147972953333,14.61251617339285,10453.378656206132
-9.567078642666003,14.600418737468338,10441.588165855408
-9.56266713655893,14.588363175130462,10429.783254146578
-9.558250420831989,14.576353740914758,10417.961174154283
-9.553821202017355,14.564392674050461,10406.11986568451
-9.549378438191056,14.55248355730434,10394.256581811906
-9.544921087429117,14.540629413635859,10382.3665154171
-9.540447065883589,14.528834385619094,10370.448293037416
-9.535954289706524,14.517100152675972,10358.496420822145
-9.531442758897922,14.505430297573264,10346.512272233964
-9.526906221913938,14.493828515039201,10334.48829322815
-9.52234884645047,14.482297828033245,10322.422423610687
-9.517756045571875,14.470841483437782,10310.311916456223
-9.513138238517898,14.45946261617374,10298.151964645387
-9.508490215668667,14.448165032930808,10285.940507984162
-9.503807809328285,14.436950525092374,10273.672739353182
-9.499088935648803,14.425822899348134,10261.344538364412
-9.494333594630222,14.414786186310701,10248.953844823838
-9.48953866050062,14.403842849132232,10236.497225074769
-9.484704133259992,14.392996694502422,10223.96781180382
-9.479826887136422,14.382250521457808,10211.364918279649
-9.474899628662085,14.371608024726624,10198.68305065155
-9.46992652553288,14.361071443538103,10185.918088531495
-9.464902368128937,14.3506461520424,10173.066598262789
-9.45982611452628,14.340334277507283,10160.124459457398
-9.454694638952986,14.330137947200525,10147.086864995958
-9.44950898333303,14.320062311349357,10133.950381221772
-9.444262896122567,14.31011005702886,10120.710201015474
-9.43895741924557,14.300284319159957,10107.364264183045
-9.433585259234219,14.290587672856262,10093.905703411103
-9.42815266763236,14.28102594011378,10080.331771774294
-9.422649225200251,14.271599120932512,10066.637662153245
-9.417074931937892,14.26231449280746,10052.81856742859
-9.41143395554118,14.253171719854238,10038.87311413765
-9.40571587677037,14.244176847991774,10024.794434967042
-9.399920695625465,14.235332452333683,10010.577036066057
-9.394048412106462,14.226641331916506,9996.219543972016
-9.38809277466952,14.218108189121628,9981.717151565554
-9.382057951010532,14.209735487101204,9967.065738458634
-9.37593456381373,14.201526584699083,9952.260497531892
-9.369722613079116,14.193485736450803,9937.297995128632
-9.363422098806687,14.185616301200215,9922.17205066681
-9.35702885330055,14.177921525829703,9906.881290683747
-9.350541834636728,14.170404993106038,9891.420908060076
-9.343960000891245,14.163069390104297,9875.785408945085
-9.337276058596286,14.155921098627793,9859.9734198761
-9.330493133523769,14.148960342599446,9843.978760271073
-9.32359976450998,14.142192888034531,9827.798683204652
-9.316604286946713,14.13562114210447,9811.429755020143
-9.309499407366147,14.129249527286998,9794.867168598175
-9.302286167692255,14.123081570368152,9778.106803550721
-9.294955190609272,14.117120070384473,9761.146599683763
-9.287511685737067,14.11136916991004,9743.98174987793
-9.279942108063976,14.105833739268432,9726.608820476533
-9.272258960677688,14.100515737785225,9709.025751285553
-9.264451824338462,14.095420371668386,9691.227048454286
-9.25651444750245,14.090550439954454,9673.209965057375
-9.24845516556145,14.085909973256042,9654.971754169464
-9.240259391579821,14.08150277826285,9636.508982133866
-9.23193441902538,14.077331094204107,9617.818215293886
-9.22347295443031,14.07340259043993,9598.895333261491
-9.214868746250765,14.069717378931783,9579.738962574007
-9.206129087954565,14.066281169714207,9560.347043037416
-9.197243560301967,14.063097433592509,9540.715454263689
-9.188207995597073,14.060169753333462,9520.839389133454
-9.17902656153578,14.057502103568952,9500.717474184037
-9.169698216194115,14.055098067065748,9480.347649221421
-9.160960641745865,14.052775202622197,9448.69688856125
-9.152488757911051,14.050780217318902,9408.518298139574
-9.143776189638183,14.049323150857806,9363.392495155336
-9.13450723396305,14.048467709310547,9315.579512443543
-9.12460166273964,14.048172522917072,9266.252973861696
-9.11409906907897,14.048358322962576,9215.978746032715
-9.103098435758598,14.048936771853867,9165.023280715943
-9.091709164795821,14.049832855411681,9113.521177253724
-9.080012526260635,14.050988465637454,9061.547289361955
-9.068073119439441,14.052353835661512,9009.148314771654
-9.055948250150829,14.053892857912492,8956.358590049746
-9.043661882646205,14.055573399450918,8903.204210987093
-9.031254651960564,14.057366742161893,8849.707839717867
-9.018740103105573,14.059243832046135,8795.888704719544
-9.00614011648469,14.061179589736248,8741.766721200944
-8.9934838659692,14.063145633001723,8687.35768398285
-8.980777603102942,14.065115091091775,8632.678761348725
-8.96804320828938,14.0670608693327,8577.748495044709
-8.955295268464152,14.068955425204951,8522.579246234895
-8.94256087365059,14.070770824323859,8467.189556665422
-8.929846275392539,14.072479580150604,8411.596594619752
-8.917175437941406,14.07405230280152,8355.817528381349
-8.904567115928732,14.075461001911213,8299.868152770998
-8.892039022062075,14.076678078979398,8243.766322803498
-8.879606785201052,14.07767347235364,8187.534013881685
-8.86793098514535,14.078220516054955,8123.310899105073
-8.856773021304862,14.078480154684376,8052.643497447969
-8.845773429908464,14.078586070227038,7977.966958236695
-8.834725910009249,14.078569723853647,7900.948665161134
-8.82359191042017,14.078412082115731,7822.5081514835365
-8.812415191948146,14.078081459919664,7743.113081245423
-8.801270773119324,14.077560559219629,7662.983208475114
-8.790222211296134,14.07685313072459,7582.224976530076
-8.779300764197806,14.075985989204597,7500.883022947312
-8.768525186455877,14.074999720689473,7418.974516010286
-8.757895478070346,14.073943924106704,7336.498768987656
-8.747394968257625,14.072878050992394,7253.446854372026
-8.736999692766304,14.071861328959718,7169.800917148591
-8.72668151964908,14.070959143502249,7085.537608451844
-8.716406065414802,14.070236544229164,7000.632892684937
-8.706138946572318,14.069757181231378,6915.0551802063
-8.695843695782528,14.069588231385842,6828.774254837037
-8.685481761858385,14.069793064879816,6741.75784020424
-8.675022929004635,14.070439922224137,6653.970913009644
-8.664416142946537,14.071592845374832,6565.379136686326
-8.653634313660762,14.073319235131779,6475.949548130036
-8.642639931884235,14.075684700911465,6385.645750579835
-8.63138298526619,14.07875412438088,6294.434094200135
-8.619834299935352,14.08259742547279,6202.278868961335
-8.607950115084796,14.087278702123948,6109.152605609895
-8.59569292145145,14.092864963269117,6015.001052370072
-8.583025209772241,14.099423665688903,5919.79124613762
-8.56990321924025,14.107022769990488,5823.487476882936
-8.556293608288298,14.11572816549402,5726.050600919723
-8.54214844841357,14.125606749172793,5627.441474561691
-8.527430230352993,14.136727377325684,5527.6168337345125
-8.511947240095298,14.149128396753289,5429.372018351555
-8.496630957673487,14.162027588704227,5331.932738828659
-8.481981506595211,14.175128423247484,5238.038709840775
-8.467507098744614,14.189704573970076,5146.448664493561
-8.451480224172348,14.207831022639603,5059.36529355526
-8.433694581931512,14.229698439625148,4975.462862176895
-8.414077237343903,14.254862785770055,4897.178923244476
-8.391736303487546,14.284107007575203,4823.622786211968
-8.365759054960975,14.318441445269958,4748.43051176548
-8.335551595098858,14.357560220141263,4671.694121904374
-8.30174741367755,14.399671277034951,4594.76373044014
-8.26566767029643,14.442553524476052,4518.794076118469
-8.22878772930307,14.48428021767211,4444.511033964157
-8.192353731770698,14.523477365566526,4372.304324011803
-8.157295073884367,14.559308616041243,4302.345285730362
-8.1242181553971,14.591353889692382,4234.6740929031375
-8.093479314308105,14.619484990646429,4169.250228381157
-8.065236923061466,14.643763945553104,4105.982013530732
-8.039518071680515,14.664362167410093,4044.7393127632145
-8.016272747814488,14.68152149297443,3985.360400848389
-7.995375920586473,14.69551981059377,3927.6595169591906
-7.976685888335967,14.706656953062247,3871.4258345746994
-7.960021356291447,14.715245404819148,3816.4286119651797
-7.9455448645929,14.721449637251549,3759.7313859272003
-7.932948003743943,14.725689281917477,3701.0841862535476
-7.921903609616651,14.72837691680288,3640.8169873523716
-7.912174123544891,14.729891083609388,3579.187656841278
-7.903594921540728,14.730604166158237,3516.2538801527025
-7.894757322390946,14.731476457905464,3461.37237177372
-7.885915555545267,14.732640073375741,3414.4620974063873
-7.877396785131612,14.73430807523047,3373.260964021683
-7.869188508062291,14.736806607207251,3335.6267132091525
-7.861067752606809,14.740461029313462,3300.035488128662
-7.852715690029038,14.745508587886205,3265.5244914436344
-7.843876007031307,14.752078374490686,3231.528543262482
-7.834331983426968,14.760199611068385,3197.733463997841
-7.8239752591226965,14.76982650538151,3163.9837090015412
-7.812741234832087,14.780858627999017,3130.2219362068176
-7.800638245946934,14.793159050053386,3096.451922636032
-7.7876954663385165,14.806568898230624,3062.7210527515413
-7.773979579141189,14.820916535610117,3029.105210366249
-7.759553099793408,14.836024055429403,2995.6984776735308
-7.74450563375696,14.851708624621711,2962.612448515892
-7.728930954189529,14.867784611083726,2929.969189388752
-7.7128978280734195,14.884066830557988,2897.899007563591
-7.696522950893748,14.900368755249486,2866.5397643566134
-7.679887592720508,14.91650296167153,2836.033269789219
-7.663089694407281,14.932283257913493,2806.525969319344
-7.646223029111753,14.94752412383353,2778.1670553302765
-7.628816647197551,14.962284675083357,2755.2552943181995
-7.611391510651813,14.976062652546295,2737.979365718365
-7.594585276946792,14.98836710521328,2725.3574153995514
-7.578877231110655,14.998886892182563,2716.3032060670853
-7.56449868026569,15.007502214690247,2709.9229568839073
-7.551543397569581,15.014233113837955,2705.5404091644286
-7.539988460694897,15.019194014239428,2702.645836572647
-7.529756767267537,15.022551514549509,2700.8440252232554
-7.520746208738026,15.024500763595743,2699.8103228759765
-7.512854676556883,15.025253256579072,2699.107453351021
-7.50586753438541,15.025106139218545,2698.542445142269
-7.499536804317728,15.024359132346836,2698.0375259256366
-7.493643682319241,15.023269971248514,2697.569175152779
-7.4880089574663735,15.022022496643508,2697.1355043125154
-7.482536772753493,15.020722288190095,2696.625434610844
-7.477135438870863,15.019431708422378,2696.039824461937
-7.471771614251306,15.018171358249289,2695.4045979738235
-7.466424460415338,15.016943141015675,2694.7458509373664
-7.461085641971164,15.01573731607438,2694.080923318863
-7.455744739679042,15.014543471009475,2693.4199444055557
-7.4504246758664046,15.013350185751877,2692.7687514138224
-7.445106695901716,15.01214995888366,2692.130262951851
-7.439805386720616,15.010937080370285,2691.5060241651536
-7.4345082452354125,15.009705056446977,2690.8962067365646
-7.429227774533798,15.008450752192815,2690.3002956175806
-7.42395147152808,15.007169801110795,2689.717775759697
-7.418675168522363,15.005859963971684,2689.14847548008
-7.4135051417620215,15.004476120306466,2687.9487558317187
-7.408389295048342,15.00305029109315,2686.0875422215463
-7.4032901191182505,15.001620991074526,2683.6956569695476
-7.398174272404571,15.000227182839225,2680.90443744421
-7.3935752199821305,14.998674837174317,2674.0228743839266
