Latitude,Longitude,Altitude (m)
-37.94986496420925,131.55829680850547,11995.02946472168
-37.938315293342235,131.55604991454825,11995.32886505127
-37.92675058873508,131.55385527393886,11995.62826538086
-37.915189642562964,131.55166063332948,11995.926212310791
-37.90363997169595,131.5494659927201,11996.227066040039
-37.892079025523834,131.54723651654547,11996.52501296997
-37.88052559622179,131.5450418759361,11996.82513999939
-37.86896465004967,131.54288207089195,11997.126720428467
-37.85740746231259,131.54068743028256,11997.42394065857
-37.84585779144558,131.5385276252384,11997.72334098816
-37.83429684527346,131.53636782019424,11998.024921417236
-37.822743415971416,131.53420801515009,11998.32141494751
-37.81118998666937,131.5320307923233,11998.623722076416
-37.79963655736732,131.52988840506177,11998.923122406006
-37.788083128065274,131.5277286000176,11999.223249435425
-37.776537215633304,131.52555137719082,11999.521923065186
-37.76499130320133,131.52344382549452,11999.822050094604
-37.753434115464245,131.52126660266774,12000.122177124023
-37.74188444459724,131.51917646875404,12000.421577453613
-37.73033853216526,131.51703408149248,12000.720251083374
-37.71878510286322,131.5149439475788,12001.020378112793
-37.707231673561175,131.51281897809986,12001.319778442383
-37.6956857611292,131.51072884418616,12001.62063217163
-37.68413609026219,131.50865612805507,12001.92075920105
-37.67259769470029,131.50651374079354,12002.221612930298
-37.661051782268316,131.50445844244507,12002.522466659546
-37.64950211140131,131.50238572631397,12002.822593688965
-37.637956198969334,131.50027817461765,12003.121267318726
-37.626410286537364,131.49820545848658,12003.421394348145
-37.614871890975465,131.49609790679025,12003.722248077393
-37.603333495413565,131.4940426084418,12004.021648406982
-37.59178006611152,131.49202214565852,12004.324682235718
-37.58024167054962,131.48993201174483,12004.624082565308
-37.568699516552684,131.48787671339636,12004.922756195068
-37.55715360412071,131.4858388328305,12005.225063323975
-37.54561896699384,131.4837661166994,12005.525190353394
-37.53407305456187,131.4817804894814,12005.826044082642
-37.52253465899997,131.4797077733503,12006.125444412231
-37.51100002187311,131.4777395639149,12006.428478240967
-37.49945786787617,131.47568426556643,12006.726425170898
-37.48792323074931,131.47373347391365,12007.027278900146
-37.476388593622445,131.47167817556516,12007.329586029053
-37.46485395649558,131.46969254834715,12007.628986358643
-37.45331931936872,131.46767208556392,12007.931293487549
-37.44178468224185,131.46570387612852,12008.232147216797
-37.43025004511499,131.46370083112788,12008.530820846558
-37.41871164955309,131.46171520390988,12008.833854675293
-37.40718077086126,131.45972957669184,12009.133981704712
-37.39564237529936,131.45777878503907,12009.43410873413
-37.38411525504257,131.45582799338627,12009.737142562866
-37.37258813478578,131.4538772017335,12010.037269592285
-37.36104973922388,131.4519264100807,12010.338123321533
-37.34952637740213,131.45001045399314,12010.63970375061
-37.337991740275264,131.44804224455774,12010.93983078003
-37.32646462001847,131.44609145290494,12011.239957809448
-37.314945016631754,131.44415807903476,12011.541538238525
-37.30341037950489,131.44224212294722,12011.843845367432
-37.29187950081306,131.44030874907705,12012.14397239685
-37.28035613899131,131.4384450463373,12012.445552825928
-37.26883277716956,131.43652909024976,12012.747133255005
-37.25730189847773,131.4345957163796,12013.05016708374
-37.24578605352605,131.43273201363988,12013.348114013672
-37.23425893326925,131.43078122198708,12013.653327941895
-37.222731813012466,131.4289697725952,12013.953454971313
-37.21121220962575,131.42707123429025,12014.253582000732
-37.19969636467407,131.42519011376794,12014.556615829468
-37.188176761287345,131.423291575463,12014.856742858887
-37.17666091633566,131.4214452905059,12015.159049987793
-37.16513379607888,131.41959900554878,12015.462083816528
-37.15362170956223,131.41773530280906,12015.765117645264
-37.142102106175514,131.41587160006935,12016.065244674683
-37.130578744353755,131.4140949862427,12016.36682510376
-37.11906665783712,131.412231283503,12016.670585632324
-37.10754705445039,131.41036758076325,12016.969985961914
-37.09603496793375,131.4085561313714,12017.274473190308
-37.084511606111995,131.40677951754475,12017.576780319214
-37.073003278030384,131.40496806815287,12017.876907348633
-37.061491191513745,131.40310436541316,12018.180667877197
-37.0499791049971,131.4013277515865,12018.480794906616
-37.03846701848045,131.39955113775986,12018.78455543518
-37.02695493196381,131.3977745239332,12019.086135864258
-37.0154466038822,131.39598049232396,12019.389169692993
-37.00393451736556,131.3942038784973,12019.692203521729
-36.99242994771898,131.39239242910543,12019.993057250977
-36.98092161963737,131.39068548640924,12020.294637680054
-36.96940953312073,131.3889088725826,12020.597671508789
-36.95790496347416,131.38713225875594,12020.900705337524
-36.94640415226262,131.38539048049452,12021.20301246643
-36.93489582418101,131.3836487022331,12021.505319595337
-36.9233874960994,131.38190692397168,12021.807626724243
-36.91188668488787,131.38016514571027,12022.110660552979
-36.9003821152413,131.37842336744885,12022.412967681885
-36.888877545594724,131.3767512603179,12022.715274810791
-36.87737673438319,131.37500948205647,12023.020488739014
-36.86586840630158,131.37330253936028,12023.32206916809
-36.85437511196012,131.3715955966641,12023.623649597168
-36.842881817618654,131.36992348953314,12023.930316925049
-36.831384764842156,131.36816429348912,12024.231170654297
-36.81988771206566,131.36650960414076,12024.534204483032
-36.808386900854124,131.36487233257503,12024.837238311768
-36.7968973649477,131.36316538987884,12025.140998840332
-36.78539279530112,131.3614932827479,12025.443305969238
-36.77389950095966,131.35985601118213,12025.746339797974
-36.76240244818316,131.35818390405117,12026.052280426025
-36.75091291227673,131.35652921470285,12026.352407455444
-36.73942713480535,131.35490936091972,12026.657621383667
-36.72792256515877,131.353272089354,12026.960655212402
-36.71643302925235,131.35163481778827,12027.263689041138
-36.70494725178096,131.3499975462225,12027.568176269531
-36.693461474309565,131.34839511022201,12027.871936798096
-36.6819681799681,131.34681009200412,12028.174243927002
-36.67048240249672,131.3451554026558,12028.479457855225
-36.658996625025324,131.34355296665527,12028.783218383789
-36.64751084755394,131.34195053065477,12029.085525512695
-36.636017553212476,131.3403829302195,12029.390012741089
-36.62453929261115,131.33878049421898,12029.693773269653
-36.61305351513977,131.33721289378371,12029.998260498047
-36.60157525453845,131.33561045778322,12030.302021026611
-36.59008947706706,131.33407769291316,12030.605781555176
-36.578611216465745,131.3325275102605,12030.908815383911
-36.56713295586442,131.33101216317306,12031.215482711792
-36.55565093682807,131.32942714495516,12031.51706314087
-36.54416891779172,131.32791179786773,12031.82300376892
-36.532694415625436,131.3263790329977,12032.126037597656
-36.52121615502412,131.32481143256243,12032.431978225708
-36.50974165285784,131.323296085475,12032.73719215393
-36.49826715069156,131.32178073838756,12033.038045883179
-36.48679264852528,131.32028280908273,12033.346893310547
-36.475314387923966,131.31878487977792,12033.648473739624
-36.463847402627756,131.3172695326905,12033.954414367676
-36.45237290046148,131.31575418560305,12034.25890159607
-36.44089463986016,131.31425625629822,12034.561935424805
-36.42942765456395,131.31279316255865,12034.868602752686
-36.41796442770278,131.31136490438428,12035.17236328125
-36.4064899255365,131.30984955729684,12035.47903060913
-36.39501918180525,131.30838646355724,12035.781337738037
-36.383555954944086,131.30694078760027,12036.087278366089
-36.37208521121284,131.3055125294259,12036.394672393799
-36.360629501221744,131.30406685346892,12036.696979522705
-36.34916627436057,131.30262117751195,12037.004373550415
-36.337695530629325,131.30115808377235,12037.310314178467
-36.32623606220319,131.29976466116324,12037.61480140686
-36.31477659377706,131.29831898520627,12037.919288635254
-36.30331336691589,131.29694298037973,12038.224502563477
-36.29185014005471,131.29551472220538,12038.530443191528
-36.280394430063616,131.2941038818136,12038.835657119751
-36.268934961637484,131.2927278769871,12039.142324447632
-36.25747549321135,131.2913692899432,12039.446084976196
-36.24601978322025,131.28997586733405,12039.752025604248
-36.23456407322915,131.28858244472494,12040.058692932129
-36.223108363238055,131.28725869324626,12040.363906860352
-36.21165265324696,131.2858478528545,12040.670574188232
-36.20019694325586,131.2845241013758,12040.975788116455
-36.188748750134835,131.28321776767976,12041.282455444336
-36.17730807388388,131.2817895095054,12041.587669372559
-36.16585236389278,131.2804657580267,12041.89433670044
-36.15438913703161,131.27914200654803,12042.20100402832
-36.14295597765073,131.27781825506938,12042.506217956543
-36.1315077845297,131.27652933915593,12042.814338684082
-36.120052074538606,131.27517075211202,12043.119552612305
-36.10861891515773,131.27388183619857,12043.426219940186
-36.097166963601666,131.27259292028512,12043.732887268066
-36.085722528915674,131.27126916880644,12044.038827896118
-36.074289369534796,131.27004992402345,12044.345495223999
-36.06284493484881,131.26869133697954,12044.65143585205
-36.05140050016282,131.26747209219653,12044.960283279419
-36.03995982391187,131.2662005940657,12045.264770507812
-36.02852290609595,131.26492909593486,12045.572164535522
-36.01708598828004,131.26370985115187,12045.88101196289
-36.00563779515901,131.26240351745582,12046.186225891113
-35.9942008773431,131.26120169045544,12046.494346618652
-35.98276771796222,131.2599301923246,12046.801013946533
-35.9713308001463,131.25872836532423,12047.109134674072
-35.9599051576355,131.2574917027586,12047.414348602295
-35.94847199825461,131.256255040193,12047.721742630005
-35.93703883887373,131.25505321319264,12048.029136657715
-35.925613196362924,131.25386880397485,12048.337257385254
-35.914180036982046,131.2526843947571,12048.645378112793
-35.90274687760117,131.25151740332194,12048.953498840332
-35.89132123509036,131.25036782966941,12049.259439468384
-35.87990310944963,131.2491137493212,12049.568286895752
-35.86846995006875,131.2479990112339,12049.874954223633
-35.85704806599298,131.24679718423351,12050.183074951172
-35.84562242348217,131.2456824461462,12050.49192237854
-35.8342005394064,131.24449803692843,12050.800769805908
-35.822782413765665,131.2433484632759,12051.107437133789
-35.8113605296899,131.2422511429712,12051.415557861328
-35.79993864561413,131.2411015693187,12051.725131988525
-35.78851676153836,131.23998683123136,12052.031072616577
-35.77710239433266,131.23885467536144,12052.341373443604
-35.76568426869193,131.23775735505674,12052.648767471313
-35.75427365992127,131.23667745253468,12052.956888198853
-35.74285553428053,131.23552787888212,12053.26573562622
-35.7314374086398,131.23443055857746,12053.575309753418
-35.720030558304174,131.23336807383797,12053.882703781128
-35.70861619109848,131.23232300688113,12054.190824508667
-35.69720558232782,131.23124310435904,12054.502578735352
-35.68579497355716,131.23016320183697,12054.808519363403
-35.6743843647865,131.22913555266274,12055.11882019043
-35.66297751445087,131.22803823235805,12055.429121017456
-35.65157442255028,131.2270280009664,12055.735061645508
-35.64016757221466,131.22596551622695,12056.04826927185
-35.62876448031407,131.22495528483532,12056.35566329956
-35.617361388413485,131.22389280009585,12056.66305732727
-35.605958296512895,131.22288256870425,12056.974084854126
-35.594547687742235,131.22194200844308,12057.282932281494
-35.58315587114676,131.22093177705145,12057.59395980835
-35.5717565376812,131.21990412787721,12057.903533935547
-35.560357204215656,131.21896356761604,12058.213108062744
-35.54896538762017,131.2179359184418,12058.521228790283
-35.53756981258966,131.21699535818064,12058.832256317139
-35.52617799599418,131.21601996235427,12059.141103744507
-35.51477866252863,131.21506198431047,12059.452131271362
-35.503383087498115,131.2141040062667,12059.762432098389
-35.49199502933767,131.21309377487506,12060.072006225586
-35.48059945430715,131.21217063239652,12060.381580352783
-35.46921139614671,131.21124748991798,12060.692607879639
-35.4578158211162,131.2103069296568,12061.002182006836
-35.44643152139079,131.20940120496087,12061.31466293335
-35.43505473853546,131.20849548026493,12061.622783660889
-35.42366668037502,131.2075723377864,12061.935991287231
-35.41227862221458,131.20668403087305,12062.2448387146
-35.40089432248917,131.20583055952497,12062.555139541626
-35.3895137811988,131.2048899992638,12062.868347167969
-35.37813699834347,131.2040365279157,12063.177921295166
-35.3667564570531,131.20316563878498,12063.49040222168
-35.35537215732769,131.2023295852195,12063.799976348877
-35.343995374472364,131.2014412783062,12064.11318397522
-35.33261859161703,131.20058780695808,12064.422031402588
-35.3212418087617,131.1997517533926,12064.733785629272
-35.30987254277644,131.19891569982713,12065.046266555786
-35.2984957599211,131.19804481069642,12065.356567382812
-35.28712273550081,131.1972784282614,12065.669048309326
-35.27576098638562,131.1964075391307,12065.98080253601
-35.26438420353029,131.19565857447827,12066.291103363037
-35.253014937545025,131.1948051031302,12066.605037689209
-35.241645671559766,131.19403872069518,12066.916065216064
-35.23027640557451,131.1932026671297,12067.228546142578
-35.21891465645932,131.19247112025988,12067.539573669434
-35.20755290734414,131.19170473782486,12067.852781295776
-35.19618364135887,131.19093835538985,12068.164535522461
-35.18482189224369,131.19017197295483,12068.477016448975
-35.17346765999857,131.189440426085,12068.789497375488
-35.16210215244835,131.18863920808477,12069.100524902344
-35.15075167863827,131.18790766121498,12069.413005828857
-35.13939368795812,131.18717611434516,12069.72694015503
-35.12803569727797,131.18640973191015,12070.039421081543
-35.11667770659782,131.1857304383882,12070.351902008057
-35.10531971591767,131.1849988915184,12070.665836334229
-35.09396172523752,131.18431959799645,12070.9797706604
-35.082618768297515,131.18355321556143,12071.289344787598
-35.07126829448744,131.18296101095254,12071.606185913086
-35.05991406224232,131.18222946408275,12071.917213439941
-35.04856734686728,131.18163725947386,12072.230421066284
-35.03722063149224,131.1809405481693,12072.545082092285
-35.025877674552234,131.18031350799518,12072.858289718628
-35.01453095917719,131.17961679669062,12073.17149734497
-35.00318800223719,131.17900717429913,12073.485431671143
-34.99184504529719,131.17829304521194,12073.799365997314
-34.98050584679222,131.17764858725522,12074.112573623657
-34.969155372982144,131.1770041292985,12074.42578125
-34.95783120821732,131.1764119246896,12074.742622375488
-34.94649200971235,131.17581972008074,12075.054376602173
-34.935149052772346,131.17522751547185,12075.370491027832
-34.92381737113745,131.17465272864558,12075.685152053833
-34.91248944793759,131.17402568847146,12075.998359680176
-34.90115400786766,131.1734509016452,12076.313747406006
-34.88981480936269,131.17292836816677,12076.627681732178
-34.87849064459787,131.1723361635579,12076.943796157837
-34.86715520452794,131.1717265411664,12077.259183883667
-34.85583479819815,131.17122142547058,12077.57239151001
-34.84450311656325,131.17068147420954,12077.88777923584
-34.83317895179843,131.17010668738328,12078.20244026184
-34.82185854546864,131.16958415390485,12078.51782798767
-34.81053438070382,131.16906162042642,12078.832489013672
-34.799210215939,131.1685216691654,12079.14933013916
-34.78788229273914,131.16803397125219,12079.463991165161
-34.776561886409354,131.16752885555638,12079.778652191162
-34.76525275538468,131.1670759932084,12080.09622001648
-34.75393234905489,131.16655345972998,12080.412334442139
-34.74261570116015,131.166100597382,12080.729175567627
-34.7313103285705,131.16568257059927,12081.04165649414
-34.71999743911079,131.16514261933824,12081.359951019287
-34.708677032781004,131.16468975699027,12081.676065444946
-34.6973754186264,131.1642368946423,12081.990726470947
-34.68606252916669,131.1638362856422,12082.309020996094
-34.67475339814201,131.16338342329422,12082.624408721924
-34.66344802555237,131.16293056094625,12082.941976547241
-34.652138894527695,131.1625299519461,12083.2580909729
-34.64083728037309,131.16209450738077,12083.574932098389
-34.62953190778345,131.16172873394586,12083.891773223877
-34.61823405206388,131.16131070716312,12084.209341049194
-34.606928679474244,131.160910098163,12084.526908874512
-34.59563458218971,131.16052690694548,12084.841569900513
-34.584332968035106,131.1601785512932,12085.160591125488
-34.573035112315544,131.1597953600757,12085.480339050293
-34.561744773466046,131.15951667555387,12085.794273376465
-34.55044691774648,131.15909864877113,12086.11402130127
-34.53915282046195,131.15876771090146,12086.4294090271
-34.527866240047494,131.15841935524918,12086.748430252075
-34.516575901197996,131.15812325294473,12087.06745147705
-34.505285562348504,131.15780973285766,12087.385019302368
-34.493995223499006,131.15746137720538,12087.702587127686
-34.48271615995462,131.15716527490093,12088.020881652832
-34.47142582110513,131.15683433703128,12088.339176177979
-34.46014299912571,131.1566253236399,12088.657470703125
-34.44886393558132,131.15625955020502,12088.975765228271
-34.437584872036936,131.1559982834658,12089.294059753418
-34.42630580849255,131.15578927007442,12089.612354278564
-34.41502298651313,131.1555105855526,12089.933555603027
-34.40374768140378,131.1552493188134,12090.251123428345
-34.392472376294435,131.15498805207417,12090.571598052979
-34.381204588055155,131.1547442031176,12090.889892578125
-34.36992928294581,131.15450035416097,12091.2089138031
-34.358650219401426,131.15429134076962,12091.529388427734
-34.347382431162146,131.15408232737823,12091.846956253052
-34.33611088448784,131.15389073176948,12092.168884277344
-34.324850613118635,131.1536643005955,12092.48790550232
-34.313575308009284,131.15349012276937,12092.806926727295
-34.30231503664008,131.15331594494322,12093.127401351929
-34.29105476527088,131.15314176711706,12093.447149276733
-34.279794493901676,131.15300242485617,12093.769077301025
-34.2685267056624,131.15274115811695,12094.087371826172
-34.25727395116327,131.15261923363866,12094.410753250122
-34.246006162924,131.15249730916034,12094.729047775269
-34.234753408424865,131.15237538468205,12095.049522399902
-34.22350065392573,131.15225346020375,12095.371450424194
-34.212244140991565,131.15213153572546,12095.69047164917
-34.20099138649244,131.15200961124714,12096.01457977295
-34.18974239042834,131.15190510455147,12096.334327697754
-34.17849715279929,131.15181801563838,12096.654075622559
-34.16724063986512,131.15174834450795,12096.975276947021
-34.1559991606711,131.15164383781226,12097.297204971313
-34.14474640617197,131.15153933111657,12097.619859695435
-34.133508685412984,131.15150449555134,12097.940334320068
-34.12226344778393,131.1514522422035,12098.263715744019
-34.111018210154874,131.15139998885564,12098.58564376831
-34.09978800626596,131.15139998885564,12098.906118392944
-34.08853901020187,131.15126064659475,12099.229499816895
-34.07730504787792,131.15126064659475,12099.551427841187
-34.06606732711894,131.15124322881212,12099.87190246582
-34.05483712323002,131.15126064659475,12100.1960105896
-34.043606919341116,131.15122581102952,12100.520118713379
-34.0323767154522,131.15124322881212,12100.841320037842
-34.02113899469322,131.15122581102952,12101.164701461792
-34.00990879080431,131.15126064659475,12101.4895362854
-33.99868234535043,131.1513303177252,12101.810737609863
-33.98746341676663,131.1513651532904,12102.134845733643
-33.97623321287772,131.15139998885564,12102.458953857422
-33.96501052585888,131.15143482442087,12102.780155181885
-33.95378783884004,131.15150449555134,12103.105716705322
-33.94256891025624,131.15152191333397,12103.428371429443
