Latitude,Longitude,Altitude (m)
22.904540087466454,120.27496641060645,18.610724800646306
22.904541822978512,120.27496862373972,18.612286468565465
22.90454354687494,120.27497082237987,18.61384110194445
22.904545254145074,120.27497300436832,18.615395735323432
22.904546945699938,120.27497517140108,18.616948023855688
22.90454862381711,120.27497732363233,18.61849796754122
22.904550287813315,120.27497946029116,18.62004615259171
22.9045519358665,120.27498158122341,18.621590820372106
22.904553570254237,120.27498368627487,18.623133729517463
22.904555188698946,120.27498577606228,18.624673707604412
22.904556792794935,120.274987850894,18.626211340844634
22.904558382314445,120.27498990891985,18.627747801661492
22.904559956118685,120.27499195183582,18.62927722793818
22.904561513979903,120.27499397779174,18.630808412849905
22.904563058175675,120.27499598940871,18.632336080491545
22.90456458642842,120.27499798437397,18.633860230863096
22.9045661005602,120.27499996376683,18.635383208811284
22.904567598293443,120.27500192619962,18.636901497066024
22.904569081450205,120.27500387383091,18.638417440474036
22.90457054911946,120.27500580481052,18.63993103903532
22.904572002212234,120.27500771960096,18.641443465173246
22.904573438906468,120.27500961897319,18.6429517878294
22.904574860568708,120.27501150123118,18.644456007003786
22.904576266971198,120.27501336745419,18.645957295119764
22.904577656975146,120.27501521702551,18.6474568246007
22.904579031719344,120.27501705087025,18.648952836811546
22.904580391887063,120.27501886806328,18.65044474554062
22.90458173520073,120.27502066798789,18.651935481846333
22.90458306325464,120.27502245218591,18.65342328709364
22.90458437627656,120.27502422004059,18.65490757507086
22.904585673355456,120.27502597062686,18.656389518201355
22.904586954263568,120.27502770486979,18.657866771638396
22.90458821968417,120.2750294227694,18.659341680228714
22.90458946938951,120.27503112262967,18.660814243972304
22.904590702013035,120.2750328063008,18.662282118022443
22.904591919604567,120.27503447362861,18.663747647225858
22.90459312079756,120.27503612337962,18.66521141779423
22.904594306503043,120.27503775663313,18.66667049866915
22.904595476948774,120.2750393736975,18.6681254760623
22.904596629173906,120.27504097225997,18.669578108608725
22.904597767050316,120.27504255494166,18.671027223885062
22.90459888761716,120.2750441189673,18.67247340810299
22.90459999269649,120.27504566711215,18.673916075050833
22.90460108092177,120.27504719690931,18.675354638516904
22.904602152976263,120.27504871020896,18.67678968471289
22.904603208176706,120.27505020546927,18.678224730908873
22.904604248572912,120.27505168469463,18.67965332877636
22.904605271204034,120.27505314588063,18.68107840937376
22.90460627789213,120.27505458933568,18.682499386489393
22.904607267726174,120.27505601521395,18.683920363605026
22.90460824093392,120.27505742351542,18.685336651027203
22.90460919751537,120.27505881377756,18.68674649012089
22.90461013792604,120.27506018630874,18.688156915426255
22.90461106102714,120.27506154172566,18.689559719979766
22.9046119677297,120.27506287925745,18.690961938321593
22.904612856894932,120.2750641987499,18.692362984240056
22.90461373011714,120.27506550051137,18.693755823194984
22.904614586029783,120.27506678423352,18.6951457310915
22.904615424860612,120.27506804991633,18.696534466564657
22.9046162472929,120.275069297714,18.697917339921
22.904617053098892,120.27507052747232,18.6992984546423
22.90461784068429,120.27507173872877,18.700677810728553
22.904618612554415,120.27507293210006,18.702050718486312
22.904619366203942,120.27507410727785,18.703420695185663
22.904620103227174,120.27507526395374,18.70478832703829
22.904620822713078,120.27507640274449,18.706149510562422
22.904621524889414,120.27507752257081,18.70751186650992
22.90462220998394,120.27507862420362,18.7088683603406
22.90462287731338,120.27507970779709,18.710218992054465
22.904623526877735,120.2750807718094,18.711570796191694
22.90462416027131,120.27508181886165,18.712914393365384
22.90462477681083,120.27508284602439,18.71425564569235
22.90462537444648,120.27508385499361,18.715595725595954
22.904625954089287,120.27508484484422,18.71693287444115
22.90462651687804,120.27508581634713,18.718266506016256
22.904627062129467,120.27508676888561,18.71959368926287
22.904627588932534,120.27508770245967,18.720918527662757
22.904628098426038,120.27508861676094,18.72224102121592
22.90462859038221,120.27508951256031,18.723562342345716
22.904629064117785,120.27509038924109,18.72487721514702
22.904629520543793,120.27509124664907,18.72619032931328
22.904629958293686,120.27509208493844,18.72749933999777
22.904630378961766,120.27509290472594,18.72880307477713
22.90463078095373,120.27509370508645,18.73010798197985
22.904631164952857,120.27509448555745,18.73140937191248
22.90463153095914,120.27509524783493,18.7327048997283
22.904631878744823,120.27509598960614,18.734000427544117
22.90463220830991,120.27509671133367,18.735288920819762
22.90463251919888,120.27509741440514,18.736577414095404
22.904632812550524,120.27509809851217,18.737862390100958
22.904633087226056,120.27509876180459,18.73914677989483
22.904633343680988,120.27509940644094,18.740424135148526
22.904633581232048,120.27510003118778,18.74169973176718
22.904633801929055,120.27510063635344,18.742974155962468
22.904634002127885,120.27510122085869,18.744246235311035
22.904634185472663,120.27510178670788,18.745512452542783
22.904634349458057,120.2751023320508,18.74677808356285
22.904634494311818,120.27510285781257,18.74804254215956
22.904634620944982,120.27510336337646,18.749302897274497
22.904634728902032,120.27510384874246,18.750559735119346
22.904634817271937,120.27510431406476,18.751814228117468
22.904634887421242,120.27510475903499,18.753069893538953
22.904634938894436,120.27510518380733,18.75432204169035
22.90463497214703,120.27510558915269,18.75557008635998
22.904634984673688,120.27510597275835,18.756815786182884
22.90463497943527,120.27510633662867,18.758062072217466
22.904634954154186,120.27510668060945,18.7593036685586
22.90463491019699,120.2751070033131,18.760545851111413
22.904634848702468,120.27510730612721,18.76178451639414
22.9046347660265,120.27510758828089,18.763019078195097
22.904634663991146,120.27510784977413,18.764257157266144
22.904634543507434,120.27510809045276,18.765490546643736
22.90463440343658,120.2751083101626,18.76672276359797
22.904634244234096,120.27510850936616,18.767952635705473
22.90463406521671,120.27510868760095,18.769181335389618
22.904633866839937,120.27510884532948,18.77041003507376
22.904633648876022,120.27510898193503,18.771635803699496
22.90463341246375,120.27510909757179,18.772862744748593
22.904633154642273,120.2751091917772,18.77408792716265
22.904632877689167,120.27510926547636,18.77531076472998
22.90463258183219,120.27510931774417,18.776532429873946
22.904632264793765,120.2751093479639,18.777755267441275
22.904631928395958,120.2751093575232,18.778975760161877
22.904631573094274,120.27510934657626,18.780196839094163
22.904631197066664,120.27510931327288,18.78141733181477
22.904630801451905,120.27510925869234,18.78263723832369
22.90463038511122,120.27510918314299,18.783857731044293
22.904629949183384,120.27510908508302,18.785075878918175
22.90462949366841,120.27510896605426,18.786294613003733
22.90462901856629,120.2751088260567,18.787511002242567
22.90462852068842,120.27510866308596,18.788732667386533
22.904628005045467,120.27510847899225,18.789951987683775
22.904627467765554,120.27510827300465,18.79117248040438
22.90462691044298,120.27510804527734,18.79239062827826
22.904626332394475,120.27510779581031,18.79361053478718
22.904625735669857,120.27510752383266,18.794832786142827
22.904625116169488,120.27510722965276,18.796054451286796
22.904624477081978,120.27510691388734,18.797277288854126
22.904623817724048,120.27510657591965,18.798500712633135
22.904623136729157,120.27510621605808,18.799726481258872
22.904622436374883,120.27510583322334,18.800954008519653
22.90462171392813,120.27510542818634,18.80218036335707
22.90462097234975,120.27510500140961,18.80340906304121
22.90462020799562,120.27510455181393,18.80464010757208
22.90461942359883,120.27510407893669,18.805872324526312
22.904618618248353,120.27510358462811,18.80710688632727
22.90461779262746,120.27510306734636,18.80834320676327
22.904616944686328,120.2751025267831,18.809580699622632
22.904616076474785,120.27510196417174,18.810821123540403
22.904615187765067,120.27510137997487,18.812064478516582
22.9046142762796,120.27510077110881,18.813307833492757
22.904613344295957,120.27510013942377,18.81455763679743
22.904612391358626,120.27509948584485,18.815807440102102
22.904611416784334,120.2750988088302,18.817060760676863
22.90461042080084,120.27509810884239,18.818318770945073
22.904609402952627,120.27509738495631,18.81957795363665
22.90460836506175,120.27509663902215,18.82084065359831
22.90460730553392,120.27509587011484,18.822106870830062
22.90460622277482,120.2750950760758,18.823374846696854
22.904605119517548,120.27509426029705,18.824651615738873
22.90460399394004,120.27509342046585,18.825927798569204
22.904602846725574,120.27509255735312,18.827210429728034
22.90460167832966,120.27509167095887,18.82849775058031
22.904600487385753,120.2750907602038,18.829787416279316
22.90459927548816,120.27508982616719,18.83108001303673
22.904598040814818,120.2750888693116,18.832381989181044
22.904596784504513,120.27508788794103,18.83368455153704
22.904595504962945,120.27508688267218,18.834992976009847
22.90459420515096,120.27508585319671,18.836308435022833
22.90459288301874,120.27508480090225,18.8376244802475
22.904591537427503,120.2750837233219,18.838948732435707
22.90459017042706,120.27508262246,18.840280605375767
22.904588780878623,120.2750814972373,18.84161482316256
22.904587369009956,120.27508034857888,18.842956075489525
22.90458593504881,120.2750791743262,18.84430201750994
22.904584478311914,120.27507797694616,18.845655580282212
22.904582999710303,120.27507675428022,18.8470150051713
22.90458149764967,120.27507550771602,18.848380292177204
22.904579973268802,120.27507423663683,18.849754958570006
22.90457842747873,120.27507294196774,18.851131969809533
22.90457685709085,120.27507162077929,18.852518360435965
22.90457526483825,120.27507027692602,18.853909440755846
22.904573649354386,120.27506890639923,18.85530990046263
22.904572011778047,120.27506751259088,18.856719739556315
22.90457035097044,120.27506609318829,18.858134268343452
22.904568666248306,120.27506464834559,18.85955524545908
22.90456695920593,120.27506317975883,18.86098325711489
22.904565229843325,120.27506168542361,18.862424165427687
22.90456347679394,120.27506016672758,18.863869763433936
22.9045616993745,120.27505862197474,18.865325913250448
22.904559900773616,120.27505705239854,18.866787925183775
22.90455807803044,120.27505545722806,18.868256385445598
22.904556231600484,120.27505383785098,18.869737742364407
22.90455436239478,120.2750521911836,18.871229064881803
22.904552469730053,120.27505052077215,18.872727421939373
22.90455055337855,120.27504882384135,18.874233985960487
22.90454861288475,120.27504710177881,18.8757499293685
22.904546650070717,120.27504535443038,18.877279941856862
22.90454466220336,120.27504358025422,18.878812885403637
22.90454265110474,120.2750417812547,18.880356380760674
22.90454061723037,120.27503995589,18.88191394519806
22.904538558074922,120.2750381043143,18.88348088902235
22.904536476143722,120.2750362274527,18.885056626021864
22.904534369842473,120.27503432330083,18.886645259678367
22.904532239854444,120.27503239509652,18.88823916924
22.904530085724122,120.27503043975611,18.889847147881987
22.904527906768234,120.27502845789633,18.891467436969283
22.90452570458108,120.2750264495172,18.893099450290205
22.904523478934905,120.27502441569798,18.89474084299803
22.904521227552138,120.27502235458849,18.896395132362844
22.90451895248259,120.27502026711382,18.898059387326242
22.90451665213196,120.2750181529656,18.899734194099906
22.90451432900558,120.27501601260639,18.9014236561656
22.904511980825877,120.27501384480271,18.9031224976182
22.90450960782061,120.2750116512506,18.90483540815115
22.904507211356318,120.27500943087074,18.906560629129412
22.904504788699917,120.27500718227553,18.9082975743413
22.904502342584497,120.27500490777767,18.910046829998496
22.904499871871266,120.27500260614373,18.91180956852436
22.904497374738167,120.27500027675697,18.9135857899189
22.90449485369053,120.27499792115921,18.915374321758748
22.9044923085006,120.274995538117,18.917179853737355
22.904489738485104,120.27499312670524,18.91899593752623
22.904487142277496,120.27499068908247,18.92082550418377
22.90448452238311,120.27498822355271,18.922667967498306
22.904481876068857,120.2749857304243,18.924525672316552
22.904479205612308,120.27498320985144,18.926393928945068
22.904476509419165,120.27498066137159,18.928281530559065
22.90447378794494,120.27497808560145,18.930182028830053
22.904471041189634,120.27497548115339,18.93209542375803
22.90446826960876,120.27497284987761,18.934024060189728
22.90446547160802,120.27497019038647,18.9359691105485
22.904462648553956,120.27496750267996,18.9379258851409
22.904459800446567,120.27496478783735,18.939897901237014
22.904456926374824,120.27496204323755,18.941890434741975
22.904454026566484,120.27495927103911,18.943894106268885
22.904451100566035,120.27495647047112,18.945912433087827
22.90444814974002,120.27495364215032,18.94794776004553
22.904445172721893,120.27495078453487,18.94999950093031
22.904442170422683,120.27494789962914,18.952064138472082
22.904439142159124,120.27494498542877,18.95414870721102
22.90443608770345,120.27494204208794,18.956249103665353
22.904433006372393,120.27493907037757,18.95836650025845
22.904429899760256,120.27493606983509,18.96049620729685
22.904426766956007,120.27493304030634,18.962645259320738
22.904423608187404,120.27492998240803,18.964810725271704
22.90442042231566,120.27492689536925,18.96699319136143
22.904417210024047,120.27492377872747,18.96919500243664
22.904413972679112,120.27492063340779,18.971409710168842
22.904410708458794,120.27491745802253,18.973643176674845
22.904407416679817,120.27491425349682,18.975894815742972
22.90440409961976,120.27491102060156,18.978164041161538
22.904400755228806,120.27490775794911,18.980449680507185
22.904397385101255,120.2749044652311,18.982753492414954
22.904393987187287,120.27490114198498,18.9850737182498
22.904390562853454,120.27489779052351,18.987415047705177
22.904387112783024,120.27489440837975,18.98977337729931
22.90438363492618,120.27489099786644,18.992149293243887
22.90438013064947,120.27488755620828,18.99454455417395
22.904376598586346,120.27488408463877,18.996957401454452
22.90437303942008,120.27488058223278,18.99939017993212
22.904369453833944,120.27487705114888,19.001839372336867
22.904365840689152,120.27487348876596,19.004309668362144
22.904362201124492,120.27486989678003,19.006796378314498
22.90435853263463,120.27486627364927,19.009301847040657
22.904354838408175,120.27486262076133,19.011830178022386
22.90435111685082,120.27485893703691,19.014378440201284
22.904347366823778,120.27485522263021,19.016941357672216
22.904343590149107,120.27485147723286,19.01952655118704
22.904339784321483,120.27484770069067,19.02213050347567
22.90433595298502,120.27484389362039,19.024755559384825
22.90433209295111,120.27484005617617,19.02739702922106
22.904328205358546,120.27483618727877,19.03006311994791
22.90432429043508,120.2748322883158,19.032745624601844
22.904320345675387,120.2748283555869,19.035448646664623
22.90431637495134,120.27482439325502,19.038171599924567
22.904312375985363,120.27482039946992,19.04091507059336
22.9043083485497,120.27481637392326,19.043680231094363
22.904304292872112,120.27481231676921,19.046464150369168
22.904300209635863,120.27480822847033,19.049268587052826
22.90429609815769,120.27480410840991,19.05209412735701
22.9042919588931,120.27479995597118,19.054941943705085
22.904287789336767,120.27479577115416,19.057808518826963
22.904283593132806,120.27479155580905,19.06069619756937
22.904279368914672,120.27478730746891,19.063601462662223
22.90427511486031,120.27478302705885,19.066534865915777
22.904270833019535,120.27477871457886,19.069484683096412
22.904266523392344,120.27477437064566,19.0724579487443
22.904262183701167,120.274769992484,19.07544938695431
22.90425781576806,120.27476558364005,19.07846544605494
22.90425341799872,120.27476113964252,19.081503194987775
22.90424899244297,120.2747566651169,19.08456087511778
22.90424453864529,120.27475215775043,19.087638486444952
22.904240055239136,120.27474761738894,19.090738960027696
22.90423554222451,120.27474304279897,19.09386112344265
22.90423100051244,120.27473843660162,19.097003804266453
22.90422642987517,120.27473379725508,19.10016934734583
22.904221829629424,120.27472912398842,19.103355994045735
22.904217200230722,120.27472441757256,19.106567261636258
22.9042125414513,120.27471967754494,19.10979846042395
22.90420785397444,120.27471490452231,19.113050762832167
22.904203136661344,120.27471009773375,19.116325927495957
22.90419838973978,120.27470525717924,19.119620437145237
22.90419361229871,120.27470038239626,19.12294015389681
22.90418880570468,120.27469547400153,19.126283905327323
22.90418397109648,120.27469053245761,19.129645243108275
22.904179104602232,120.2746855557601,19.133030615568163
22.904174209638295,120.27468054575921,19.136439436495305
22.904169284154857,120.27467550075893,19.139868188619616
22.904164329290705,120.27467042214691,19.143321561634544
22.904159343907047,120.27466530822713,19.146798969328405
22.90415432777613,120.2746601597705,19.150292790949347
22.90414928294777,120.27465497770213,19.15381299209595
22.90414420691663,120.27464975924671,19.157356641709807
22.90413910059375,120.27464450717956,19.160918463885785
22.90413396489015,120.27463922026719,19.164505493164064
22.904128797756016,120.27463389727616,19.168114798486236
22.904123599874623,120.27462854005664,19.171745793640614
22.90411837397906,120.2746231473752,19.175400237262252
22.904113115286417,120.27461771907763,19.17907695692778
22.904107826302027,120.27461225562648,19.182778297483924
22.904102506798136,120.27460675625085,19.186497224390507
22.90409715654698,120.27460122156747,19.190242530822758
22.904091775093054,120.27459565111378,19.194010699510578
22.904086364258408,120.27459004504398,19.197799385607244
22.9040809210822,120.27458440150785,19.20161210638285
22.90407544738649,120.2745787234349,19.205447103202346
22.90406994157697,120.27457300835817,19.209304376065734
22.904064406614495,120.27456725874463,19.21318275254965
22.904058838627183,120.27456147012292,19.217085749924184
22.904053240575884,120.27455564650184,19.22101043713093
22.904047610638536,120.27454978603117,19.224956227958206
22.904041949042895,120.2745438890193,19.228924881041053
22.904036256699996,120.27453795515784,19.232918155014517
22.904030532015533,120.2745319836759,19.236930187761786
22.904024775900535,120.27452597488183,19.240969186246396
22.90401898812725,120.27451993000908,19.24502635729313
22.904013170062214,120.27451384767004,19.249105804383756
22.904007318972344,120.27450772740212,19.253209286153318
22.904001435313155,120.27450157013047,19.257335043966773
22.903995521134462,120.27449537492994,19.261481905400757
22.903989574386447,120.27448914226312,19.265648698031903
22.903983595752383,120.27448287166743,19.269843042612077
22.903977584549,120.27447656298872,19.27405380111933
22.90397154145957,120.27447021607277,19.27828976672888
22.90396546716736,120.27446383246144,19.28254683595896
22.90395935871153,120.27445740845434,19.286826767444612
22.903953219508438,120.27445094728928,19.29112604391575
22.903947046824996,120.27444444727028,19.295450527489187
22.903940842483262,120.27443790901405,19.299792011201383
22.903934604888935,120.27443133159552,19.304156357169152
22.903928335864077,120.2744247156314,19.308542979180814
22.90392203290335,120.27441805988825,19.312950118601325
22.903915697373304,120.27441136575368,19.317378947854046
22.903909329501694,120.27440463214843,19.32183122557402
22.903902928149733,120.27439785953506,19.32629991722107
