Latitude,Longitude,Altitude (m)
22.90375612475056,120.27312125389473,10.374540508627891
22.90376192846169,120.27312153225276,10.29879789674282
22.903767700166746,120.2731218286401,10.222894221574068
22.903773438325327,120.27312214159492,10.146822746634482
22.903779140883568,120.27312246947267,10.070600619345903
22.903784806129917,120.27312281166421,9.994224777668714
22.903790433379747,120.2731231669514,9.917696446418761
22.903796019894575,120.27312353399417,9.841022362083196
22.903801564647463,120.27312391175707,9.764201912254094
22.90380706524224,120.27312429896101,9.687240608602762
22.90381252065197,120.27312469493596,9.610140900760888
22.90381792882279,120.2731250988292,9.532905850768088
22.90382328804314,120.27312550948342,9.455539745479822
22.903828596601468,120.2731259254368,9.378045034527778
22.903833853128532,120.27312634681117,9.300427841991185
22.903839056255087,120.27312677208376,9.222688167870045
22.90384420272918,120.27312720088912,9.144830299019812
22.90384929237965,120.27312763176543,9.066856685072183
22.903854324008414,120.27312806459084,8.988773450106383
22.903859294363517,120.27312849851263,8.910581206530331
22.903864203273805,120.27312893243443,8.83229036527872
22.903869048514252,120.27312936647803,8.753897864311933
22.903873828544466,120.27312979905982,8.675409827709197
22.903878541481728,120.27313023066704,8.59682992991805
22.90388318629911,120.27313066008149,8.518161232978105
22.903887761798526,120.27313108638955,8.439409248560667
22.90389226609726,120.27313150971304,8.360574589073657
22.903896697312604,120.27313192938192,8.28166215378046
22.90390105390416,120.27313234503076,8.202680516391991
22.903905335700774,120.27313275538043,8.123627839684486
22.90390954013511,120.27313316116188,8.04451269736886
22.903913666351393,120.27313356109597,7.9653344770371906
22.90391771246691,120.27313395530453,7.886103589624166
22.90392167711242,120.27313434305665,7.806816360682249
22.90392555926099,120.27313472447416,7.727478914290666
22.903929357543376,120.27313509846066,7.648099824160337
22.90393307024802,120.27313546513797,7.5686784778833385
22.903936696690305,120.27313582426247,7.4892265112102026
22.90394023481636,120.27313617534685,7.409736575245857
22.90394368394157,120.2731365180257,7.330219080924987
22.903947042696686,120.2731368518726,7.2506813771426675
22.90395030902784,120.27313717719211,7.171122239083052
22.90395348259273,120.27313749325334,7.091546566009521
22.903956562364414,120.27313780017809,7.011962931632995
22.90395954594672,120.27313809705272,6.932371948361396
22.90396243316849,120.27313838405995,6.8527766782343384
22.90396522214702,120.27313866083432,6.773184470146894
22.903967912026523,120.27313892725401,6.693597773730755
22.903970501951225,120.27313918356268,6.614021488249302
22.903972990209578,120.27313942878574,6.534458675742149
22.903975375432328,120.27313966292321,6.454915460288524
22.90397765727717,120.2731398859751,6.375399803191423
22.90397983403255,120.27314009708864,6.295905580371618
22.90398190432922,120.27314029729934,6.216445039987564
22.903983867653718,120.2731404850235,6.137023081302642
22.903985722294486,120.2731406612357,6.057640316724777
22.903987468251525,120.2731408250832,5.97830409514904
22.90398910312866,120.27314097613964,5.89901870343089
22.903990626583575,120.27314111477047,5.819779242306947
22.90399203656241,120.27314124097569,5.740600409567356
22.90399333340747,120.27314135390255,5.661488941699266
22.9039945150649,120.27314145355108,5.582445451110601
22.903995581705843,120.27314153979943,5.50346748816967
22.903996529907193,120.27314161276942,5.424564851403236
22.90399736086704,120.27314167160834,5.3457461145222185
22.903998072189214,120.27314171631618,5.267010665118694
22.903998663189082,120.27314174725838,5.188362177640199
22.90399913420896,120.2731417634604,5.109805857554078
22.90399948199689,120.27314176540952,5.031352728202939
22.903999707579814,120.27314175225298,4.952996053099632
22.90399980787692,120.27314172411263,4.874750223830342
22.903999783572846,120.27314168111027,4.7966106473356485
22.903999632956022,120.27314162239318,4.718590796589851
22.903999354657216,120.27314154796134,4.640688528165221
22.90399894833411,120.27314145769294,4.562914865404367
22.90399841261746,120.27314135103978,4.48526552145183
22.903997746822647,120.27314122818461,4.407748151406645
22.903996949580428,120.2731410889447,4.330371635183692
22.90399602054849,120.27314093265001,4.253135666579007
22.903994958699897,120.27314075923965,4.176048513099551
22.903993762494256,120.2731405685309,4.09911201196909
22.903992430562322,120.27314035997557,4.022328612819313
22.903990962904093,120.2731401338782,3.945707195565104
22.90398935832148,120.27313988938604,3.8692526594698426
22.90398761578755,120.27313962668185,3.792965923145413
22.903985734104214,120.27313934521742,3.716855254098773
22.90398371275801,120.27313904456639,3.6409221833497285
22.903981550550846,120.27313872478966,3.565173141181469
22.903979246284635,120.27313838533905,3.4896127206534144
22.90397679978822,120.2731380258491,3.4142485768646
22.90397420952121,120.27313764656344,3.339074891939759
22.90397147479897,120.27313724662935,3.2641094257086514
22.90396859493688,120.27313682549863,3.189349116131663
22.90396556805224,120.27313638353674,3.114802843123674
22.903962393973885,120.27313591989093,3.040470912888646
22.903959071846042,120.27313543456123,2.9663652673810716
22.903955600470624,120.27313492706033,2.8924828445613384
22.903951978820693,120.27313439726643,2.818832830548286
22.90394820655394,120.27313384420496,2.7454237990528343
22.903944282301122,120.27313326781503,2.6722529942393303
22.90394020537762,120.27313266815753,2.599332358062267
22.903935975098804,120.27313204437972,2.5266643401533364
22.90393159009544,120.27313139623797,2.454252768062055
22.90392705002521,120.27313072330593,2.382105449989438
22.90392235283425,120.27313002546174,2.3102266727909444
22.903917499207182,120.27312930215723,2.2386237853616473
22.903912487090142,120.27312855284423,2.1672990842312574
22.903907316483128,120.2731277774618,2.0962600713968276
22.903901986016898,120.2731269750354,2.0255111868157982
22.903896495177985,120.27312614550411,1.9550594731792805
22.903890842425987,120.27312528874612,1.884914116606116
22.90388502810322,120.27312440415233,1.8150746577903627
22.90387905066928,120.27312349123544,1.7455507421568035
22.903872908412612,120.27312254950822,1.6763471158668397
22.90386660236015,120.27312157897062,1.6074737305492162
22.903860130286876,120.2731205786481,1.5389339544475078
22.903853492363943,120.27311954841885,1.4707320744171737
22.903846687050955,120.27311848810012,1.4028792669028043
22.903839714005592,120.2731173969001,1.3353811966776847
22.903832572714396,120.2731162748188,1.2682419974952934
22.903825261123497,120.27311512112527,1.2014759078398347
22.90381777991752,120.27311393569772,1.1350820090994238
22.903810127556067,120.2731127177443,1.0690710184127092
22.903802304039132,120.27311146750866,1.0034522750005126
22.903794307655165,120.27311018413806,0.9382332808598876
22.90378613806185,120.27310886741931,0.8734215379878878
22.903777795601506,120.27310751701742,0.8090227111577987
22.90376927787795,120.273106132506,0.7450493547320366
22.90376058574696,120.27310471364143,0.6815086645036935
22.903751717668136,120.27310326033235,0.6184100179690867
22.903742673299174,120.27310177200009,0.5557652805317193
22.90373345161313,120.27310024858376,0.49357954283244904
22.903724052952327,120.27309868956561,0.43186551233567294
22.903714475947513,120.27309709485431,0.3706354371998459
22.903704720085223,120.27309546448028,0.30989605391211805
22.903694785194304,120.27309379823033,0.2496623664665967
22.90368467127475,120.27309209543449,0.18994371408410368
22.903674376272704,120.27309035670183,0.130755713166669
22.903663901728557,120.27308858130144,0.07210372228361665
22.903653245074985,120.27308676972059,0.014009788120165467
22.903642407852377,120.27308492180701,-0.04351981214247644
22.903631388862657,120.2730830374998,-0.10046196010522544
22.903620187763504,120.2730811170426,-0.15680976617895065
22.90360880421261,120.27307916055722,-0.2125433271061629
22.903597238552287,120.27307716795228,-0.2676477919947356
22.90358548941329,120.27307513995873,-0.32210203277133403
22.90357355816487,120.27307307669837,-0.37589150474779304
22.903561444122392,120.27307097841485,-0.4289969170745462
22.9035491467724,120.27306884583908,-0.4813943858426064
22.903536667312974,120.27306667912333,-0.5330620174687355
22.90352400420372,120.27306447933354,-0.5839809804093092
22.90351115932735,120.27306224717016,-0.6341217259820551
22.903498131656928,120.27305998315093,-0.6834633174911141
22.903484922048232,120.2730576882504,-0.7319741393774747
22.90347153101473,120.2730553638695,-0.7796233033165335
22.90345795924104,120.27305301083052,-0.8263823323398828
22.903444207069477,120.2730506303821,-0.8722149412781
22.90343027638275,120.27304822401655,-0.9170877538993955
22.90341616598277,120.27304579353068,-0.9609600450769066
22.903401878950334,120.27304334032544,-1.0037889462560414
22.90338741511429,120.2730408667154,-1.0455253117009997
22.903372776528503,120.27303837428423,-1.0861245887354016
22.90335796473337,120.27303586565102,-1.1255325792580841
22.903342981611605,120.2730333432522,-1.1636880424767733
22.90332782801898,120.27303080976777,-1.2005275941714644
22.90331250686514,120.27302826818234,-1.2359861660003661
22.90329702054627,120.2730257222114,-1.2699809297919273
22.903281371800844,120.27302317483954,-1.3024284449666739
22.90326556251158,120.27302063054361,-1.3332420558035374
22.90324959558812,120.27301809288686,-1.362313366100192
22.903233475138197,120.27301556677253,-1.3895299990028143
22.903217202873368,120.27301305783477,-1.414769013620913
22.903200783928288,120.27301057088549,-1.4378874127045274
22.903184220527987,120.27300811241155,-1.4587320942729711
22.903167516095568,120.27300568865623,-1.4771225510910153
22.90315067465319,120.27300330677643,-1.492861128501594
22.90313370005185,120.27300097462953,-1.5057253693267703
22.903116595115613,120.27299870071244,-1.5154602056667208
22.90309936318201,120.27299649425302,-1.5217774995937943
22.90308200630491,120.27299436478366,-1.5243405798524616
22.90306452670933,120.27299232357265,-1.5227744996920227
22.903046926106825,120.27299038191882,-1.5166369474902748
22.90302920381278,120.27298855200411,-1.5054183998554944
22.903011359827183,120.27298684753325,-1.4885191563293336
22.9029933912404,120.27298528233275,-1.465246277347207
22.902975294287007,120.2729838716301,-1.434768112950027
22.902957061864054,120.27298263110958,-1.39609547124058
22.90293868601281,120.27298157682094,-1.3480459456220268
22.90292015552259,120.27298072545346,-1.2891849705353378
22.902901454561512,120.27298009400103,-1.2177518732026218
22.90288256532941,120.2729796985438,-1.1315693903565407
22.90286346557607,120.27297955500974,-1.0279081729874013
22.90284412860123,120.272979677469,-0.9032897440940141
22.902824522484405,120.27298007782946,-0.7532274501323699
22.902804609828117,120.27298076571488,-0.5718171811457723
22.902784347929074,120.27298174593714,-0.35116683623380957
22.902763687751232,120.2729830184658,-0.08053290493227541
22.902742573155596,120.27298457833668,0.2549584701824933
22.902720942269454,120.2729864133069,0.6761590516455471
22.902698726117155,120.27298850626082,1.2124602094441652
22.902675850074907,120.27299083414403,1.9049577686116097
22.90265223695159,120.27299337204441,2.8090912577211853
22.902627806732017,120.27299609556758,3.9932110657244917
22.902602484107778,120.2729989866842,5.524655577480793
22.902576201215723,120.27300203708009,7.431627096444368
22.902546563847444,120.27295976207894,11.566925680160521
22.902483619622995,120.27294495574642,13.814265561282633
22.902398820384306,120.27297364788083,14.637235250473022
22.90228535431448,120.27300981152234,15.562134114325046
22.90214821958138,120.2730648549646,15.741398161470888
22.90205372646008,120.27309805253992,16.219236792087553
22.902034241585515,120.27305154683175,16.781659980177878
22.902104370788596,120.27290093260204,18.009572160124776
22.90225681088644,120.2727418784138,19.447580676496028
22.902417700630746,120.272687355096,19.50316649401188
22.902537858708637,120.2726596612817,20.010747327804562
22.90261058335619,120.27264394878569,20.58971532833576
22.902658341725207,120.27267543742087,20.136256657123564
22.90270306944416,120.27269193560831,19.971016751408577
22.902737444481673,120.27269261583432,19.88912801361084
22.902758110222067,120.2726973903521,19.834920113921164
22.90277029640658,120.27270550872186,19.82767900264263
22.902776439861334,120.2727067567419,19.87244112253189
22.90277644910373,120.27270479626692,19.791255429029462
22.902772648596322,120.27270749916448,19.779178744792937
22.90275762260011,120.27272787750749,19.809777094244957
22.902726810677354,120.27275739693475,19.657412452697752
22.902683447837767,120.27275336991028,19.537431942105293
22.90262692801979,120.2727063090088,19.408674401164053
22.902593419029,120.27263298623036,19.66971940231323
22.90259210429819,120.27259713862152,19.814035778939722
22.902615129074547,120.27262221392887,19.91566242408752
22.90262381666992,120.27269318445063,19.834460807979106
22.902623065040633,120.27276248513068,19.759200773537156
22.902648054253998,120.2728215560847,19.664512710154057
22.902721476274547,120.27289706238999,19.49220071774721
22.90282030324512,120.27296798929459,19.337392568588257
22.902908253028286,120.27299776839577,19.209259683728217
22.902964714396667,120.2729743490446,19.389094495058057
22.902980983323967,120.27294018595676,19.526451468050478
22.902955949952485,120.27290176408245,19.678086119353768
22.902898906484324,120.27287479137227,19.582860361814497
22.90285560166644,120.27292945080836,19.55264415490627
22.90282116261678,120.27299463881708,19.513494141221045
22.90278447680915,120.2730666269845,19.24422082722187
22.902751281546355,120.273133802969,18.996200517773627
22.902723478194606,120.27318669123792,18.72546967291832
22.902699818516997,120.27321293930358,18.84948472690582
22.90271031890562,120.2732494108444,18.84428170919418
22.90279843582211,120.27330523137455,18.802840065062046
22.902896461956196,120.27336671244008,18.676290867090223
22.902961645493352,120.27341988326981,18.568499723792076
22.902994212529965,120.2734597502913,18.47914205896854
22.90300475827479,120.27348506174613,18.227220711052418
22.902997835463562,120.27347793645063,18.054726221084593
22.902967371842205,120.27343870806895,17.93741825866699
22.902926626055464,120.2733909975639,17.34295143842697
22.902891826210055,120.27333840513411,16.884528588593007
22.902863586582992,120.27330930977648,16.463673290371894
22.902859244539652,120.27329692552428,16.670947651088238
22.90287248512749,120.27330725522623,16.76252345740795
22.902894263121762,120.27331449198677,16.835679258227348
22.902900315093913,120.27331252545126,16.926243366658685
22.90289381041552,120.27331146007703,17.025190114736557
22.902890686656878,120.27331565451222,17.132905319452284
22.90289969097546,120.27332334139658,17.249113397240638
22.902922475363948,120.2733325037612,17.374644773244857
22.90295471806093,120.27334097699175,17.498352398455143
22.902972689215044,120.27334785669872,17.61375577223301
22.90294485762264,120.27336009458455,17.71497455370426
22.902897631461585,120.27337531814955,17.79979795026779
22.902867377334534,120.27338317880971,17.866895811915395
22.90285594688704,120.27338531650192,17.91501637685299
22.90285468555674,120.27338527751961,17.94815009510517
22.90285731493278,120.27338459642563,17.9686976057291
22.902861667673342,120.27338363514633,17.975200153052807
22.902866150834374,120.27338269311454,17.97545124030113
22.902869921560725,120.2733818786889,17.972970988214016
22.902871334791516,120.27338135979787,17.974375851988793
22.902871978250538,120.27338027072969,17.975061748862267
22.902871580399626,120.27337813510843,17.97509114444256
22.902870006453846,120.27337442630748,17.974517930626867
22.902867443999593,120.27336884440675,17.97340702265501
22.902864409926423,120.27336156013652,17.971791490554807
22.90286150875548,120.27335319690917,17.969742373645303
22.902859168033153,120.2733445449082,17.96729396677017
22.90285754547921,120.27333625915819,17.964495262563226
22.90285659385475,120.27332871650836,17.9613928040266
22.90285616801992,120.2733220439558,17.958017211556434
22.902856106061638,120.27331620428455,17.954416252970695
22.90285626523623,120.27331107969499,17.950616874217985
22.902856535833042,120.27330652637893,17.946654594957828
22.902856838607086,120.273302404061,17.94256371003389
22.90285711707705,120.27329858818054,17.93836871576309
22.902857333075264,120.27329497391167,17.93408920919895
22.902857462468805,120.27329147622429,17.9297582603693
22.902857486430573,120.27328802574203,17.92540526485443
22.902857394348924,120.27328456831604,17.92102287375927
22.902857178864178,120.27328105929942,17.916650281190872
22.902856834157042,120.27327746366899,17.912296060860157
22.902856355948636,120.27327375297983,17.90797736018896
22.902855741158156,120.27326990402531,17.90370520251989
22.90285498619134,120.27326589694883,17.899493060827254
22.902854088480854,120.27326171493924,17.8953531832695
22.902853044774744,120.27325734270818,17.891278220951556
22.902851850965277,120.27325276691639,17.887288995742797
22.902850504485126,120.27324797410279,17.883384282827375
22.902848999771734,120.27324295238996,17.879567756652833
22.902847332546216,120.27323768904775,17.875846766114233
22.90284549801622,120.27323217091963,17.872212737500668
22.90284349053361,120.27322638618907,17.868675469338893
22.902841304792567,120.27322032078592,17.86523251199722
22.902838934717074,120.27321396124908,17.86187406694889
22.902836374573422,120.27320729283839,17.858608707904814
22.902833618200013,120.27320030160547,17.855425411522386
22.902830660547764,120.27319297287106,17.85231805372238
22.90282749622527,120.27318529055495,17.84928785932064
22.90282412112481,120.27317724137879,17.84632013052702
22.90282053190884,120.2731688104806,17.843416092157362
22.902816726095615,120.27315998555655,17.840561046421527
22.902812703599555,120.2731507550947,17.83775254368782
22.902808465618744,120.2731411106286,17.834979560613633
22.902804016260916,120.27313104746815,17.832233523488043
22.902799361687673,120.27312056457792,17.829507083415983
22.90279451062794,120.27310966676977,17.826783092975614
22.90278947463471,120.2730983645202,17.824059102535248
22.90278426697253,120.27308667719852,17.821320414304733
22.902778904243494,120.27307463099599,17.818557229757307
22.902773403135253,120.27306226187989,17.815760975182055
22.90276778076335,120.27304961425348,17.812918177604676
22.902762053729877,120.27303674116925,17.8100190384984
22.902756236155152,120.27302370359797,17.807056208968163
22.902750341218155,120.27301056759636,17.80400641751289
22.90274437867474,120.2729974041244,17.800877013027666
22.902738360505797,120.27298428389844,17.797643499195576
22.902732298349893,120.27297127672117,17.794303426384925
22.902726215997642,120.2729584466393,17.79083719754219
22.902720152472497,120.27294585127355,17.78726073527336
22.902714177349157,120.27293354148362,17.78353484547138
22.902708404018124,120.27292156337832,17.779669326663015
22.90270301150803,120.27290996726916,17.775656829953192
22.902698265024295,120.27289882585205,17.771482657551765
22.902694540766653,120.27288826746405,17.767145584642886
22.90269234261684,120.27287852478081,17.762643161594866
22.90269230034144,120.27287000635513,17.75796926432848
22.902695129370347,120.27286337978951,17.75312756729126
22.90270589650478,120.27283165597377,18.77755496674776
22.9027083079999,120.27281725808751,19.574078432202338
22.902728975708584,120.27280115231943,20.303380329608917
22.9027445179953,120.27279289737456,20.16887595272064
22.90276370751969,120.27276493608225,20.21215849506855
22.90276914641292,120.27274095826387,20.290838215351105
22.902776739982464,120.27273619939228,20.204203316152096
22.902790042956475,120.27273148944654,20.149541009783743
22.902796928113496,120.27272374354055,20.10072107499838
