Latitude,Longitude,Altitude (m)
22.90430358398944,120.27359613171527,9.564656954646109
22.904307398714487,120.27359334000518,9.564468514084815
22.904311220243915,120.273590521801,9.564280073523522
22.904315046520583,120.27358767716659,9.564091022133827
22.904318880867564,120.2735848057189,9.56390334510803
22.904322721069473,120.27358190733023,9.563715668082237
22.904326569341695,120.27357898257516,9.56352875459194
22.904330426000712,120.27357603100681,9.563342146515845
22.904334290730034,120.2735730531359,9.56315721821785
22.90433816447912,120.27357004851555,9.562973206162452
22.904342046615,120.27356701727342,9.562790721178054
22.90434593808712,120.27356395960106,9.562609763264655
22.90434983826251,120.27356087549846,9.562430332422256
22.90435374809063,120.27355776458258,9.562253344893454
22.904357667254995,120.27355462742797,9.562078189849853
22.904361595439116,120.27355146422617,9.56190517270565
22.904365532959478,120.27354827478565,9.561734904289246
22.9043694794996,120.27354505923411,9.561567079186439
22.904373434742997,120.27354181763536,9.561401391983031
22.904377399480875,120.27353855043631,9.561239064335822
22.904381372289066,120.27353525712624,9.56107963812351
22.90438535332581,120.2735319385989,9.5609232660532
22.904389342432864,120.2735285945351,9.560770406246185
22.90439333866078,120.27352522525403,9.560620600581169
22.904397342009556,120.2735218308834,9.560474307179451
22.90440135168799,120.27351841148702,9.56033167874813
22.904405367063113,120.2735149675118,9.560193020701409
22.904409387818443,120.27351149883005,9.560057264089584
22.9044134136375,120.27350800627171,9.559926394104957
22.904417443254346,120.27350448970908,9.559798730969428
22.904421476510745,120.27350094914219,9.559675496339798
22.904425511824282,120.27349738520944,9.559556384801864
22.90442954951144,120.27349379791082,9.559441701769828
22.90443358735684,120.27349018794857,9.55933098912239
22.904437625835207,120.27348655468431,9.55922485768795
22.904441663047642,120.27348289984174,9.559123154759407
22.90444569851942,120.27347922284629,9.55902588033676
22.90444973177582,120.273475524081,9.558933339834212
22.90445376028498,120.27347180392893,9.558845075130462
22.90445778357217,120.27346806290079,9.558761849761009
22.90446180195388,120.27346430137963,9.558683358311653
22.904465812581762,120.27346051936547,9.558609142661094
22.9044698157723,120.2734567179436,9.558539813637733
22.904473809468353,120.27345289711401,9.558475371241569
22.904477792562233,120.27344905738744,9.558415510058403
22.90448176378801,120.27344519895541,9.558361299037932
22.904485723462166,120.27344132283937,9.55831136381626
22.904489668261633,120.27343742923087,9.558266620635985
22.904493598661134,120.27343351844908,9.558226458668708
22.90449751292001,120.27342959126013,9.558191488742828
22.904501409614095,120.27342564804704,9.558161405444144
22.90450528795218,120.2734216892567,9.558136056065559
22.904509146984818,120.27341771559138,9.55811559331417
22.904512984971348,120.2734137274341,9.55810032260418
22.904516801595292,120.27340972561483,9.558089785814285
22.90452059432479,120.27340571000586,9.558084288358687
22.904524363001595,120.27340168182019,9.558083219408989
22.904528106992743,120.27339764188774,9.558087647914887
22.904531825032304,120.27339359040003,9.55809619951248
22.904535515696107,120.2733895273571,9.558110553979873
22.904539178192945,120.27338545403572,9.558128573417664
22.90454281173161,120.27338137101049,9.55815254843235
22.904546414571442,120.2733772786006,9.558180341124533
22.904549987345415,120.27337317769984,9.558212867736815
22.9045535276799,120.27336906869125,9.558250586390495
22.904557036366114,120.27336495221326,9.558292428135871
22.90456051134691,120.27336082909578,9.558338851094245
22.904563951831086,120.27335669921113,9.558389855265617
22.90456735781864,120.27335256389999,9.558445440649985
22.90457072946781,120.27334842335388,9.558505607247351
22.9045740640885,120.27334427840272,9.558569744229317
22.904577363104874,120.27334012936572,9.558638767838477
22.90458062398508,120.2733359766898,9.558711151003838
22.904583847045593,120.273331821141,9.558788268089295
22.90458703276114,120.27332766291089,9.558869508266449
22.904590180815234,120.27332350308474,9.5589548715353
22.904593288359536,120.27331934159872,9.55904435789585
22.90459635824239,120.27331517941045,9.559137203812599
22.90459938761545,120.27331101722217,9.559234936356544
22.904602376636955,120.27330685484239,9.559335723042487
22.904605326256355,120.27330269316484,9.559440174698828
22.904608234732997,120.27329853225339,9.559548444032668
22.90461110238336,120.27329437325719,9.559660225629806
22.90461392857448,120.27329021566547,9.559775824904442
22.90461671330636,120.2732860607551,9.559894325613975
22.904619457528444,120.27328190865373,9.560016491293906
22.904622157759423,120.27327775942521,9.560142474651336
22.904624817164127,120.27327361415485,9.560270901322363
22.904627433052447,120.27326947277881,9.56040284025669
22.90463000589911,120.27326533542474,9.560537833333015
22.904632535229396,120.27326120324182,9.560675269722937
22.904635020568577,120.27325707584698,9.56081637108326
22.90463746175841,120.27325295426168,9.560959915757179
22.90463985769121,120.27324883848594,9.561105903744696
22.904642208841693,120.27324472890278,9.561254335045813
22.904644513785694,120.27324062608679,9.561405820488929
22.904646771573766,120.27323653016565,9.561559443831444
22.904648982364144,120.27323244149048,9.561715510487556
22.90465114520738,120.27322836034855,9.561874020457267
22.904653258204583,120.27322428753791,9.562034668326378
22.904655320881027,120.27322022334582,9.562197759509086
22.904657334027917,120.27321616815533,9.562362377762794
22.904659293689217,120.27321212228566,9.5625297447443
22.90466120081438,120.27320808631136,9.562698333382606
22.90466305366275,120.2732040606474,9.56286905992031
22.904664849702456,120.2732000457407,9.563041008114814
22.904666588933512,120.27319604200618,9.563215399622916
22.904668268824047,120.27319205043341,9.563390860080718
22.904669888899335,120.27318807121391,9.56356815302372
22.904671447102245,120.27318410482647,9.56374682033062
22.90467293963498,120.27318015194145,9.563927014708518
22.90467436744699,120.27317621332492,9.564108736157417
22.904675727056965,120.27317228967914,9.564291373848915
22.904677016566005,120.27316838173829,9.564475538611411
22.904678234233455,120.27316449039614,9.564660619616507
22.90467937689449,120.2731606161315,9.564847380399703
22.904680443283176,120.27315675974239,9.565035057425499
22.904681430867655,120.27315292276099,9.565223497986793
22.904682336324857,120.2731491055065,9.565413465619086
22.90468315886357,120.27314530896848,9.56560419678688
22.904683894211285,120.27314153420029,9.565795996904372
22.904684540469095,120.27313778209572,9.565988407850265
22.90468509526339,120.27313405405926,9.566182498574257
22.90468555479637,120.27313035120812,9.566377352833747
22.90468591732738,120.27312667434036,9.566572970628737
22.904686180008078,120.27312302466892,9.566769962787628
22.904686339831876,120.27311940385368,9.566968023896218
22.90468639426691,120.27311581259691,9.567166848540305
22.90468633919891,120.27311225233501,9.567366589426994
22.90468617367842,120.27310872418522,9.567567857384681
22.90468589359117,120.27310522996702,9.567770346999168
22.90468549688002,120.27310177073376,9.567973905563354
22.904684979430694,120.27309834737923,9.56817883849144
22.90468433981902,120.27309496185059,9.568385451197624
22.904683573455998,120.27309161532891,9.568593132853508
22.90468267875921,120.27308830905906,9.56880264699459
22.90468165208911,120.27308504447751,9.569013688206672
22.904680490913833,120.27308182314833,9.569227020025252
22.90467919380921,120.27307864612493,9.569441878914832
22.90467775476206,120.27307551490755,9.569659333825111
22.904676172981183,120.27307243061342,9.569879537463187
22.904674444510544,120.2730693950301,9.570101268172264
22.904672568400695,120.27306640889176,9.570325594902037
22.904670539271425,120.2730634737625,9.57055358660221
22.90466835617329,120.27306059107877,9.570783868908881
22.904666014359044,120.27305776189392,9.57101796889305
22.90466351367045,120.27305498722943,9.571255581140518
22.904660848094334,120.27305226833018,9.571497163772582
22.90465801715597,120.27304960650493,9.571742716789245
22.904655016424602,120.27304700274321,9.571992698311805
22.904651844476057,120.27304445797074,9.572247108340262
22.904648496721336,120.27304197324086,9.572507015824318
22.904644972052743,120.27303954960699,9.572771962642669
22.90464126635601,120.2730371878352,9.573043017745018
22.90463737709927,120.27303488913846,9.573319723010062
22.904633301117695,120.27303265377216,9.573603147387503
22.90462903619591,120.27303048320465,9.573894207119942
22.904624578377877,120.27302837759551,9.574191222429274
22.90461992592294,120.27302633799812,9.574496942043304
22.904615074400343,120.27302436479555,9.574810602426528
22.904610021752948,120.27302245891347,9.575132661700248
22.904604765290646,120.2730206206392,9.575464341521263
22.904599301848616,120.27301885041959,9.575805183768272
22.904593628420272,120.27301714902075,9.576156562805176
22.90458774168254,120.2730155164746,9.576518325924873
22.90458163831235,120.27301395354725,9.576891542077064
22.90457531609433,120.27301246036636,9.57727636396885
22.90456877202189,120.27301103725114,9.577673707842827
22.90456200308844,120.27300968439312,9.578083573698997
22.904555006129154,120.27300840236686,9.57850687777996
22.904547778770414,120.27300719101277,9.578944230914114
22.90454031721443,120.27300605055429,9.579396243929862
22.904532618454606,120.27300498111909,9.579863222241402
22.90452468059205,120.27300398296255,9.580345776677131
22.904516499354248,120.27300305608468,9.580845128893852
22.904508073000542,120.27300220061312,9.581360668063164
22.904499398840827,120.27300141638831,9.581893921256064
22.904490472919072,120.27300070376137,9.582445346593856
22.904481293178133,120.27300006234924,9.583015402197837
22.904471857402637,120.2729994925988,9.583604851603507
22.904462162269514,120.27299899403125,9.584213694810867
22.904452204772173,120.27299856699774,9.584842695355414
22.90444198269524,120.27299821117903,9.585492769479751
22.90443149382333,120.27299792702203,9.586163764476776
22.90442073578283,120.27299771398408,9.586855833053589
22.904409706041868,120.27299757222478,9.587570349574088
22.904398402226832,120.27299750183991,9.588307466745375
22.90438682243882,120.27299750279752,9.589067184567451
22.904374964145973,120.27299757481035,9.589849961161613
22.904362825449393,120.27299771813375,9.590656254649161
22.90435040492491,120.27299793264005,9.591486065030097
22.90433770051538,120.27299821829733,9.59233908689022
22.904324710321916,120.2729985752971,9.593216694593428
22.904311434028024,120.27299900344784,9.594118277311324
22.904297868627125,120.27299950300491,9.595043224215507
22.90428401332801,120.27300007387257,9.595992298841475
22.904269867497714,120.2730007159231,9.596964584946631
22.904255429870304,120.27300142953959,9.597960998773575
22.904240700445783,120.27300221440282,9.598980165958404
22.904225677167013,120.27300307070429,9.600021781086921
22.904210360983438,120.2730039986994,9.601086149573325
22.904194750312648,120.27300499810084,9.602172355175018
22.90417884610409,120.27300606894053,9.603279481649398
22.90416264756656,120.2730072113781,9.604407223582268
22.904146155807744,120.27300842528584,9.605553901195526
22.904129371144126,120.27300971082336,9.606719056367874
22.904112294050428,120.2730110677353,9.607902536392212
22.90409492436841,120.27301249586203,9.60910143983364
22.904077265104664,120.27301399526745,9.610315461277962
22.904059316259183,120.27301556566422,9.611542920947075
22.90404107846493,120.27301720686084,9.61278274989128
22.90402255536147,120.27301891850618,9.61403235208988
22.904003747581754,120.27302070056832,9.615290658593176
22.90398465686644,120.27302255218541,9.61655537879467
22.90396528558916,120.27302447319784,9.617824680209159
22.903945635807037,120.2730264629672,9.619095966815948
22.90392571068491,120.27302852098275,9.620366948008536
22.90390551227991,120.27303064628688,9.621634875059128
22.903885043440386,120.27303283843273,9.622897610068321
22.90386430717292,120.27303509607958,9.62415164077282
22.90384330600938,120.2730374186529,9.625394065737723
22.90382204311459,120.27303980490778,9.626621830821037
22.903800521653377,120.2730422535674,9.62783066022396
22.903778744157606,120.27304476348262,9.629017805218696
22.903756713792102,120.27304733315314,9.630178837299347
22.90373443435466,120.27304996139794,9.631309786081314
22.9037119082189,120.27305264626985,9.6324062230587
22.9036891376002,120.27305538665163,9.633463108897208
22.903666125900752,120.27305818037273,9.634476473212242
22.90364287470297,120.27306102590092,9.635440360426902
22.90361938590575,120.2730639215444,9.636349731206893
22.90359566196183,120.27306686538797,9.637199088096619
22.90357170350418,120.27306985554831,9.63798217010498
22.903547511719612,120.27307289026977,9.638692258119583
22.90352308684548,120.27307596770098,9.639324007391929
22.903498428407072,120.27307908624589,9.639869477152823
22.903473534821963,120.2730822440531,9.64032271182537
22.90344840529895,120.27308543936701,9.640676076054573
22.903423036989686,120.2730886709746,9.640922392606734
22.903397426333747,120.27309193715219,9.64105540049076
22.90337156818828,120.27309523659103,9.641068533301352
22.903345458597254,120.27309856811004,9.640955988168717
22.90331909083541,120.2731019307197,9.640713947415351
22.9032924570698,120.27310532311127,9.64033996772766
22.903265550496045,120.2731087444548,9.639835423469544
22.903238361224055,120.27311219376075,9.639205659389495
22.90321087975935,120.27311566965655,9.638463044762611
22.90318309621184,120.2731191709292,9.637631707310677
22.90315500005848,120.27312269595079,9.636747380495072
22.903126581725658,120.27312624255067,9.635867329478263
22.903097831718895,120.27312980760065,9.635078750014305
22.903068742600848,120.27313338711065,9.634506098389625
22.903039309584713,120.27313697517538,9.634330485224723
22.903009530929832,120.27314056416579,9.634805251598358
22.902979411620812,120.27314414364386,9.636275362849235
22.902948962971912,120.27314769914959,9.639200314640998
22.902918207255606,120.27315121200942,9.64416696035862
22.90288717936412,120.27315465735722,9.6518872205019
22.90285593143799,120.27315800221905,9.663172580599785
22.902824536940773,120.273161204747,9.678872855663299
22.902793094535983,120.27316421045266,9.6997828861475
22.902761735089236,120.27316695108982,9.726528313040733
22.902730625426514,120.2731693418455,9.759464791178702
22.902699972013263,120.27317127888206,9.798601788401603
22.902670024356585,120.27317263889029,9.843573723912238
22.90264107409535,120.2731732790256,9.893640579104423
22.902613449619995,120.27317304045118,9.94770377910137
22.902587506380225,120.27317175462638,10.004314133524893
22.902563611772973,120.2731692531382,10.061675501465796
22.902542124877613,120.27316538107608,10.117676401853561
22.902523374786774,120.27316001165148,10.170001336932183
22.90250763910529,120.27315306021102,10.216371611356735
22.902495125861243,120.27314449342958,10.254897932887076
22.902485960371923,120.27313433272592,10.284436678051947
22.902480178310864,120.27312265087893,10.304784440994261
22.902477723551833,120.27310956468602,10.316594808101652
22.902478447041332,120.27309522592955,10.321037210345267
22.902482103346973,120.27307981473736,10.319347048163412
22.902488342982775,120.273063538274,10.312444992661474
22.9024967051696,120.27304663042158,10.300741825938223
22.90250663182965,120.27302935337572,10.284134928822516
22.902517532208275,120.27301199496429,10.262150603890417
22.90253294408833,120.27299552094448,10.309208212971686
22.90254752826704,120.27297572370497,10.295715929865835
22.902558887278648,120.2729554144115,10.2502092140913
22.902560356391657,120.27293749711862,10.159786759018898
22.90255643865147,120.27292739664908,10.140436020731926
22.902554006837438,120.27292354292533,10.160525250554084
22.9025549150243,120.27292016301472,10.137471823215485
22.90257160854088,120.27291821973769,10.133886107802391
22.902607898512237,120.27291680176168,10.108522985577583
22.902675760013356,120.27292638183,10.13883763551712
22.90274864682567,120.27294327096101,10.062988629817962
22.902810164587937,120.27296712489125,9.990818643569945
22.902832077933937,120.2729796292518,9.855323924422263
22.902836945676277,120.27298570696215,9.847240221381186
22.902834712613423,120.2729851230709,9.847870596289635
22.902833942373487,120.27298329574538,9.849151198029517
22.90283403063262,120.27298098182253,9.823829001307487
22.902833780215627,120.27297660436186,9.799634088397026
22.902838965667105,120.27297527652958,9.85684885752201
22.902836749852565,120.27297610866718,9.865325323224067
22.90283261199861,120.27299240907097,9.864012347579003
22.90282877092637,120.2730143807723,9.84198221051693
22.902831988487996,120.27303943868297,9.875280299067496
22.902841562882944,120.273067516089,9.904497443079947
22.902858197138126,120.27310092653018,9.884918560385703
22.902877598362593,120.27313166754901,9.828725707173346
22.902891049394533,120.27314849090766,9.750244336485862
22.902895808701963,120.27315432282955,9.68855723452568
22.90289105137255,120.27315431031668,9.607465641379356
22.902880271257374,120.2731574764871,9.541259783625602
22.902867159336722,120.27316341058676,9.493184381723403
22.90285549271375,120.27316794918251,9.457805048108101
22.902848146120128,120.27316876698778,9.425001730561256
22.9028468327562,120.27317022001257,9.403437197446822
22.90284840080964,120.27317358795297,9.387020420670508
22.902850043671688,120.27318015098383,9.395822457909583
22.902849290284458,120.27318822772051,9.408657947778702
22.90284762273675,120.27319454850608,9.402322588324546
22.90285297430212,120.27320865705133,9.412227476239204
22.902865228910514,120.27324010546214,9.422246589064597
22.90287619958788,120.27330119340832,9.46218316066265
22.902865256167594,120.27338649177378,9.513982477903365
22.902828587524606,120.27346837636088,9.600531670093536
22.90280216920464,120.27351102634162,9.710769856572151
22.90280052954698,120.2735124138654,9.822705993294715
22.902804526882584,120.27350158129737,9.918248106598854
22.902805965059404,120.27349744279417,9.988824288845061
22.902802853084342,120.27350001489066,10.032944271445274
22.90279489931853,120.27350372872246,10.055142080903053
22.902784270561238,120.27350584748288,10.0602403601408
22.902772835841017,120.27350557800935,10.053156888604164
22.902760621702857,120.27350209311194,10.038871902942656
22.90274720607743,120.27349463978419,10.022111993312835
22.90273872505132,120.27348658896702,10.00659267616272
22.90274868333987,120.27348772712722,9.993245312094688
22.902764168881284,120.27349710443602,9.982129762291908
22.90276295208416,120.273504951153,9.973103551030158
22.902753862975977,120.27351070068786,9.964802087664603
22.902746852843098,120.273515217833,9.956803289771079
22.902743614710094,120.27351860633024,9.948424403905868
22.902742626215726,120.27352112371486,9.940423009991646
22.902743105845364,120.27352302279785,9.932717562437057
22.90274454952107,120.27352449242136,9.925268357396126
22.902746648909513,120.27352564258369,9.91805768084526
22.902749206723247,120.27352653023118,9.911074385166168
22.90275208762633,120.27352717847432,9.904307628154754
22.90275519418162,120.27352759229272,9.897744735121726
22.902758454112377,120.27352776638756,9.891371351599693
22.902761811994548,120.27352768971433,9.88517403936386
22.902765223283186,120.27352735059009,9.879139971017837
22.90276865553881,120.27352673714039,9.873261205792426
22.902772083680155,120.2735258392783,9.867530719161033
22.902775487768814,120.27352464940677,9.861945609688759
22.902778855066348,120.27352316114164,9.856506946325302
22.902782177027724,120.27352137192929,9.851217325091362
22.902785450211198,120.27351928042904,9.846080563664437
22.902788672520064,120.2735168881731,9.84110277032852
22.90279184731695,120.27351419892807,9.836289442539215
22.902794978004057,120.27351121697133,9.831647757530211
