Latitude,Longitude,Altitude (m)
22.903710553919716,120.27312899833889,10.868587127327919
22.903715356542452,120.27312905516779,10.812652237296104
22.903720102855033,120.27312911735675,10.756716122448443
22.903724792343997,120.27312918490577,10.700787356495857
22.903729423126627,120.2731292575103,10.644859815359116
22.903733994347157,120.2731293353531,10.58893349903822
22.903738508230596,120.2731294181296,10.53301330679655
22.903742961525,120.2731295059616,10.477088215291499
22.903747353374584,120.27312959872731,10.421171697497368
22.90375168497744,120.27312969654854,10.36525395488739
22.90375595393739,120.27312979930345,10.309338661909102
22.903760160083284,120.27312990674844,10.253427043378352
22.903764304442046,120.27313001918802,10.197514200031756
22.903768383761726,120.27313013637858,10.141602581501006
22.903772398555795,120.27313025832011,10.08568973815441
22.903776347968467,120.27313038513442,10.02977811962366
22.90378023182859,120.27313051621242,9.973870175540446
22.903784049451545,120.27313065210231,9.917958557009696
22.90378779929693,120.2731307923777,9.862049388110638
22.903791482049364,120.27313093752588,9.806138994395733
22.903795095483833,120.27313108693774,9.750229825496673
22.903798640284954,120.27313124085694,9.694315757334232
22.903802114741172,120.2731313988571,9.638402913987637
22.903805519365957,120.27313156154732,9.582488845825194
22.90380885159197,120.27313172856213,9.526573552846909
22.903812113644243,120.27313189971882,9.47065581023693
22.903815302613122,120.2731320751392,9.414736842811108
22.903818417985146,120.27313225464053,9.358811751306057
22.903821459760316,120.27313243840555,9.30288543498516
22.90382442708285,120.27313262606881,9.24695789384842
22.903827319610443,120.27313281793485,9.191021779000758
22.903830135631534,120.27313301363822,9.135085664153099
22.90383287497497,120.2731332132398,9.079144650042057
22.903835539181156,120.27313341692235,9.023197511851787
22.90383812448466,120.27313362450313,8.967249148845672
22.903840631056646,120.2731338357994,8.911288537681102
22.903843058897113,120.27313405081118,8.855327926516532
22.903845407321437,120.27313426953847,8.799357516825198
22.90384767444691,120.27313449179852,8.74338343268633
22.903849861129306,120.27313471783499,8.687399550020695
22.903851965657072,120.27313494764786,8.631410768091678
22.903853988885988,120.27313518062805,8.575413412451743
22.903855927906406,120.27313541732374,8.519406258285045
22.903857783745263,120.27313565724765,8.463392980039119
22.90385955486216,120.27313590070433,8.407368678450585
22.903861241085934,120.27313614763287,8.35133335351944
22.903862841903127,120.273136397546,8.295290679693222
22.903864356115648,120.27313665074826,8.239239432156085
22.90386578321003,120.27313690723965,8.183171037197113
22.90386712215934,120.27313716683744,8.127096518158913
22.903868374161668,120.27313742966346,8.071009750962256
22.903869535965057,120.27313769541314,8.014910735607147
22.903870608767598,120.27313796420833,7.958798247277736
22.90387159000196,120.27313823580536,7.902669836342334
22.903872481550845,120.27313851056971,7.846530402064323
22.90387328067578,120.2731387880141,7.790376269996166
22.90387398771906,120.27313906819941,7.734212339401244
22.903874601824917,120.2731393512475,7.678026362121105
22.903875122479885,120.2731396369147,7.621826911866664
22.90387554780125,120.27313992532287,7.565616438269615
22.9038758789871,120.27314021628924,7.509382693171501
22.903876114497038,120.27314050987472,7.453134250283241
22.90387625347529,120.27314080577479,7.396868659973144
22.903876294894914,120.27314110429397,7.340587147057056
22.903876238927072,120.27314140518865,7.284287261903286
22.903876084715986,120.27314170851972,7.227965330064296
22.903875831063566,120.27314201392171,7.17162625080347
22.903875478140968,120.27314232157738,7.115267574489116
22.903875024750107,120.27314263148672,7.0588905259370796
22.90387447037751,120.27314294358881,7.002488981068134
22.90387381433856,120.27314325770091,6.94606783914566
22.9038730549217,120.2731435740667,6.889625875353813
22.903872193496177,120.27314389219885,6.8331606400609015
22.90387122766581,120.27314421228013,6.776673358082771
22.9038701574306,120.27314453449326,6.720164029419422
22.90386898279055,120.27314485822912,6.663630204439163
22.903867701520635,120.27314518379228,6.60707310795784
22.90386631396317,120.2731455109391,6.550491515159607
22.903864819946996,120.27314583991321,6.493885426044463
22.90386321690478,120.2731461705319,6.437253615796566
22.903861506376927,120.27314650255151,6.380597309231757
22.903859686309566,120.27314683615478,6.323915281534195
22.903857756189232,120.27314717152443,6.2672063078880305
22.903855714988993,120.27314750774681,6.210470388293266
22.903853563564624,120.27314784555286,6.1537075227499
22.90385129951995,120.27314818451619,6.096917711257934
22.903848923881906,120.27314852463681,6.040099729001522
22.903846433912,120.27314886615835,5.983253575980663
22.903843830294857,120.27314920871537,5.926379252195358
22.903841112859322,120.27314955236875,5.86947308319807
22.903838278695748,120.27314989681398,5.812539968252182
22.90383532848876,120.27315024241648,5.755578682541847
22.903832262409512,120.2731505887499,5.698585551619529
22.903829078232985,120.2731509361188,5.641564249932766
22.90382577698611,120.27315128403588,5.5845111030340195
22.9038223559304,120.27315163262296,5.527428560554981
22.903818815921635,120.27315198200188,5.470311723232269
22.903815156275186,120.27315233180717,5.413166715145111
22.903811375621817,120.27315268240427,5.35598986184597
22.90380747259228,120.27315303336685,5.298781163334846
22.903803447528887,120.27315338451216,5.241541232019663
22.903799300089325,120.27315373614474,5.184269455492496
22.903795028733196,120.27315408814277,5.126964608937501
22.90379063380281,120.27315444014081,5.069628223374486
22.903786112901997,120.27315479232158,5.012259073987603
22.903781466886524,120.27315514474599,4.954856242164969
22.903776695071777,120.27315549710949,4.897420034110546
22.903771795403884,120.27315584947299,4.83995412427187
22.903766768567476,120.2731562018974,4.782453613385558
22.90376161285099,120.27315655371271,4.724920338675379
22.903756328939046,120.27315690577166,4.667354912549257
22.9037509135797,120.27315725746514,4.609755803987383
22.90374536951143,120.27315760861045,4.552122706785798
22.903739693824598,120.2731579594512,4.494459601595998
22.903733886176894,120.2731583098656,4.436760058134794
22.903727946054847,120.27315865960996,4.379032650113105
22.903721872602684,120.27315900868433,4.321268803820014
22.9037156658204,120.27315935702778,4.263472806110978
22.90370932382529,120.27315970470121,4.205645881801844
22.90370284713082,120.27316005182647,4.147784050241112
22.903696234881206,120.27316039773352,4.089893129304051
22.90368948468028,120.27316074272693,4.031968525931239
22.903682598924213,120.2731610868067,3.974012995958328
22.90367557384759,120.27316142942462,3.9160271517932412
22.903668411161956,120.27316177112888,3.8580097686201333
22.903661108128833,120.2731621117977,3.7999602340310807
22.90365366577515,120.27316245070011,3.74188191626966
22.903646083073973,120.27316278862799,3.6837729781121014
22.90363835882722,120.27316312472855,3.62563433817029
22.90363049235026,120.27316345930637,3.567466915056109
22.90362248347194,120.27316379260509,3.509271014973521
22.903614331336485,120.2731641240156,3.451047250330448
22.903606035430432,120.27316445365972,3.392792865291238
22.903597594213373,120.27316478123291,3.334513677731156
22.90358900871225,120.27316510703972,3.2762063194066284
22.903580276530874,120.27316543095831,3.2178750771731135
22.90357139732695,120.27316575268415,3.159517807602882
22.90356237161393,120.27316607227816,3.1011363479197023
22.903553197680267,120.27316638961848,3.0427294733077286
22.903543875354806,120.27316670458333,2.984299020990729
22.90353440395292,120.27316701729453,2.925847440600395
22.903524782276527,120.2731673274475,2.867373813524842
22.903515011010246,120.27316763485952,2.8088781397640705
22.903505088271363,120.27316793983515,2.750362868949771
22.90349501388873,120.27316824194803,2.6918298383057118
22.90348478666425,120.27316854125904,2.6332781292200087
22.90347440694024,120.27316883776821,2.5747086603045464
22.9034638731763,120.2731691313537,2.5161243404969573
22.90345318605705,120.27316942171096,2.457525476001203
22.90344234335747,120.27316970902274,2.3989091578796504
22.903431345248716,120.27316999286266,2.3402818164154886
22.903420191388474,120.27317027353526,2.281643145404756
22.903408881092126,120.27317055061418,2.222991920031607
22.903397413332737,120.27317082440396,2.164333498865366
22.903385788281465,120.27317109447826,2.1056677288040517
22.90337400422675,120.27317136059341,2.0469952222555876
22.9033620611686,120.27317162354124,1.9883165916278958
22.903349959278163,120.27317188210357,1.9296333679407833
22.903337696501573,120.27317213676766,1.8709486132338642
22.903325273694616,120.27317238753352,1.8122650833427905
22.90331268948804,120.27317263409661,1.753580481737852
22.903299943197222,120.2731728763351,1.6948994014784693
22.90328703482217,120.27317311400535,1.6362203115448355
22.90327396384941,120.27317334735099,1.5775501015260815
22.90326072908086,120.2731735761284,1.518884484566748
22.903247331029984,120.27317380027665,1.4602306564599274
22.90323376815638,120.27317401961304,1.40158647377789
22.90322004080236,120.27317423419845,1.3429562233760952
22.903206147940992,120.27317444360652,1.2843409769684075
22.903192089058813,120.27317464826362,1.2257421124726533
22.90317786389908,120.27317484749976,1.1671656008660793
22.90316347152045,120.27317504125399,1.1086079973541199
22.903148912350805,120.27317523001363,1.0500747370570898
22.903134184935322,120.27317541316955,0.9915657434239983
22.903119289616317,120.27317559053905,0.9330866046771407
22.903104225965897,120.27317576224392,0.8746367084085941
22.903088992700397,120.27317592822327,0.8162208007797598
22.903073589990974,120.27317608829436,0.7578397238515316
22.903058017580896,120.27317624215266,0.699496233459562
22.903042274785534,120.27317639004178,0.6411941571533679
22.903026361433742,120.27317653159628,0.582934490095824
22.903010276755314,120.27317666687706,0.5247210598364472
22.902994020579094,120.27317679533594,0.46655631600692865
22.90297759281951,120.27317691727747,0.40844366512633856
22.90296099304867,120.2731770325189,0.3503830689191818
22.90294422083868,120.27317714087754,0.29238273747917265
22.90292727541935,120.27317724229245,0.2344415416792035
22.902910156790675,120.27317733645907,0.17656413199193774
22.902892865209388,120.27317742356016,0.1187532929596491
22.902875399648558,120.27317750310843,0.06101183783123269
22.90285776027934,120.27317757540843,0.003343402778729796
22.902842499286653,120.27317377134447,1.4889528942406176
22.902822753592535,120.2731722903823,3.579870931327343
22.902791186702963,120.27317541237773,5.628452596306801
22.902747855612713,120.273179802029,8.210418290495872
22.902696949437708,120.27318572216217,10.842438533842563
22.902645770954337,120.27319192156699,13.267134199023246
22.90260103185354,120.27319758271146,15.097857869565486
22.90256482981687,120.27320131155174,16.767482736766336
22.90253533818748,120.27320329983208,18.499586685061452
22.902509388791877,120.27320655893557,19.104553851544857
22.90249054564339,120.2732092142397,19.591705981850623
22.902486697597546,120.2732082078262,20.30470680516958
22.902496586362066,120.27320483250669,20.25952457344532
22.902516048537134,120.27319744901433,20.153896454930305
22.9025433674333,120.27318216204218,20.20270536637306
22.902571573086,120.27315862677955,20.3136087667346
22.902597883961974,120.27312964483606,20.41646267735958
22.90262452106029,120.27309746000887,20.49920266216993
22.902652145554566,120.2730640423358,20.41757603496313
22.9026746510452,120.27303334620632,20.321751342475412
22.90268438602652,120.27300956328425,20.256393944144246
22.90267575037684,120.27299517129102,20.056849396228788
22.902654561071834,120.2729842648032,19.84772801321745
22.90262891924263,120.2729686498924,19.665545229911803
22.902602859451743,120.27294417393801,19.827996229946613
22.90257551813421,120.27291632805465,20.01601893520355
22.902546814333487,120.2728930517198,20.13368331903219
22.90252072193748,120.27287796727292,20.08895671880245
22.90250242875433,120.2728696018528,20.032710725545883
22.902495633582305,120.27286574138633,20.00715616774559
22.902501877205804,120.27286526196488,19.951531156122684
22.90252045887151,120.27286437758427,19.899741042912005
22.902549051421172,120.27285845668975,19.862566657185553
22.90258430936422,120.27284469665146,20.061005196392536
22.90262187636583,120.2728251689983,20.28275198113918
22.90265826239464,120.27280357541997,20.46075201833248
22.902692424514736,120.2727823279162,20.38961961328983
22.902722240740495,120.27276550461482,20.287158868551252
22.902745740130996,120.27275677854747,20.220533785820006
22.902760190873646,120.27275958288278,20.011319316804407
22.902767263959383,120.27277376959458,19.783497445464132
22.902770533884805,120.27279748508946,19.57523710799217
22.90277171032199,120.27282966119131,19.72552078741789
22.902772607946897,120.27286849152709,19.92722591048479
22.90277412703735,120.27291303785667,20.078017888486386
22.902779109031027,120.27296108769052,20.13759170639515
22.902787716268897,120.27301015901305,20.188800032079218
22.902798216914253,120.27305822696759,20.256641356945035
22.902808887602575,120.27310364546534,20.16918828076124
22.902819876383358,120.27314249882505,20.065628876209257
22.902831149196654,120.27316980428576,19.994643449068068
22.902840358473924,120.27318422505888,19.48335632252693
22.902845329941538,120.27319099853908,18.911150530278682
22.902848548520314,120.27319574749758,18.396092195749283
22.902850885134914,120.27320167408719,18.441159294784068
22.902852717268736,120.27320907439068,18.554115486502646
22.90285304614399,120.2732176056074,18.581324770510196
22.90285356697011,120.27322613365682,18.566201969265936
22.90285506149975,120.27323407362161,18.548807134628294
22.90285696637465,120.27324148555888,18.537141988515852
22.902858826749128,120.27324855067545,18.528177561342716
22.902860565432057,120.27325534516955,18.519241304934024
22.90286221092083,120.27326186002651,18.509826145529747
22.9028637656972,120.27326808464801,18.50009008437395
22.902865225567854,120.27327400581663,18.490374845087526
22.902866591730888,120.27327962785697,18.48067920285463
22.902867867267094,120.27328495472815,18.471009281754494
22.902869053288985,120.27328999063297,18.46135038399696
22.902870151679267,120.27329474050512,18.45171598255634
22.90287116466297,120.27329920781646,18.442081581115723
22.902872094807417,120.2733033975007,18.432459427833557
22.90287294348186,120.27330731357787,18.422851972341537
22.902873712141115,120.27331096000712,18.413251865744588
22.902874403438094,120.27331434147852,18.403654208779333
22.90287501951224,120.2733174625603,18.394057776629925
22.902875561390484,120.27332032715069,18.384466243743894
22.90287603181132,120.27332293926972,18.374877160489557
22.902876432828606,120.27332530354657,18.36528562760353
22.90287676581159,120.27332742418402,18.35569164508581
22.90287703307087,120.27332930556754,18.346085414409636
22.902877236146846,120.2733309514736,18.336481633365153
22.902877377350116,120.27333236665312,18.326872953057286
22.9028774589057,120.2733335553089,18.317256923854348
22.90287748166938,120.27333452164372,18.307632320940492
22.902877448379638,120.27333526992126,18.298006493210792
22.902877361432655,120.27333580428339,18.288362293243406
22.902877221684207,120.27333612923746,18.27871074438095
22.902877031958358,120.27333624898624,18.269059195518494
22.902876793709932,120.27333616761067,18.259390499234197
22.902876508564905,120.27333588943537,18.249714454054832
22.902876178748297,120.27333541872403,18.240026160717008
22.902875806656287,120.27333476004488,18.23032684403658
22.902875393743695,120.27333391729616,18.220622628092766
22.90287494155092,120.27333289461973,18.210909838438035
22.902874452559715,120.27333169682747,18.201179901361463
22.902873928224906,120.27333032787853,18.19144261538982
22.902873370600357,120.2733287921584,18.181701654970645
22.90287278182551,120.27332709344351,18.17194354712963
22.90287216326961,120.27332523678938,18.16218421447277
22.902871517157678,120.27332322572876,18.152418757736683
22.902870845714734,120.27332106513445,18.142638603210447
22.902870150053293,120.27331875908743,18.132863347947595
22.902869432141635,120.27331631154681,18.1230733948946
22.902868694290365,120.27331372714175,18.113282217025755
22.902867937954305,120.27331101007503,18.103480015814302
22.90286716475943,120.27330816467125,18.093676589787005
22.902866376759608,120.27330519543774,18.0838756133914
22.90286557609428,120.27330210615091,18.074064838469027
22.902864764132687,120.27329890162264,18.06426141244173
22.902863942586386,120.27329558575116,18.054449412703512
22.902863114022715,120.2732921631047,18.044642312228678
22.90286227912629,120.27328863770332,18.034833986937997
22.902861440635597,120.27328501448072,18.025026886463163
22.90286059940642,120.2732812972133,18.015221010804176
22.90285975826282,120.2732774903475,18.00542003440857
22.902858917889418,120.27327359808608,17.99563008135557
22.90285808016893,120.27326962518,17.985837678670883
22.902857247411948,120.27326557546662,17.976047725617885
22.902856421586762,120.27326145363597,17.966271245539186
22.902855603292416,120.27325726364718,17.956502114355562
22.90285479458278,120.2732530106167,17.946737882435322
22.902853997939605,120.27324869789456,17.936983449041843
22.9028532144754,120.27324433065812,17.927236364543436
22.902852444960367,120.27323991268375,17.91750642746687
22.902851692988772,120.27323544847881,17.9077764903903
22.90285095873177,120.2732309424897,17.898064925551413
22.90285024467111,120.2732263992847,17.88836315923929
22.902849552004888,120.27322182276198,17.878669966638085
22.9028488822735,120.27321721761164,17.868992696642874
22.90284823761639,120.27321258803644,17.859327674806117
22.902847618889332,120.27320793854373,17.849677350759507
22.902847028231776,120.27320327376265,17.840039274871348
22.902846467269693,120.27319859722597,17.83040977269411
22.90284593780022,120.27319391411102,17.820803542017934
22.90284544076471,120.27318922825512,17.811209559500217
22.90284497778914,120.27318454465289,17.801626600325108
22.902844551697576,120.27317986708073,17.79205343967676
22.90284416266117,120.27317519980234,17.78250110089779
22.902843812733796,120.27317054799505,17.772956111013887
22.902843503712578,120.27316591531346,17.76342949336767
22.902843237052345,120.27316130644762,17.753912674248216
22.902843233286923,120.27315478111417,18.589511439621447
22.902843152929425,120.27314527655798,19.53341944539547
22.90284110094639,120.27313199869734,20.332349673986435
22.902839454002795,120.27311426272271,20.31223697298765
22.902838779051166,120.27309311637498,20.20670561492443
22.90283977526163,120.27306993700864,20.233883053719996
22.902839066506793,120.27304773058583,20.191315803825855
22.90283660101212,120.27302696443739,20.13735776656866
22.90283446482059,120.27300638025714,20.0976467872262
22.902832988176698,120.27298552673354,20.074171966731548
22.90283162329733,120.27296500973686,20.051850922763347
22.9028301298802,120.27294557943287,20.02670177900791
22.902828560470038,120.27292741556654,20.03751445329189
22.90282728519057,120.27290972402567,20.05390003967285
22.90282636069425,120.27289166218334,20.066297625660894
22.9028258968629,120.27287266753707,20.048254863440988
22.902825454425987,120.27285266585298,20.027121890842913
22.902824490221597,120.27283160855545,20.01123480451107
22.902822517740283,120.27280963103186,20.01335251110792
22.90282015562352,120.27278758739064,20.015156664848327
22.902818859377504,120.27276647203078,20.010978817999362
22.902819426073293,120.27274734106827,20.00997936826944
22.902818903792348,120.27273260047272,20.011057206213472
22.90281288048874,120.27272497551847,20.015411426544187
22.902798549212616,120.27272570564487,19.983212242782116
