Latitude,Longitude,Altitude (m)
22.902791375233694,120.27503478211456,15.029955662310122
22.902801624112012,120.27503451193081,15.029688247144222
22.902811828307833,120.27503418727972,15.029421327650548
22.90282198860163,120.27503380966832,15.029153912484645
22.9028321049934,120.27503337629787,15.028886125564576
22.902842175727073,120.27503289061296,15.028617223381996
22.902852200217282,120.27503235110657,15.028349312543869
22.902862179244504,120.2750317569176,15.028080286443233
22.902872111247785,120.27503110783071,15.027810268998145
22.902881997202723,120.27503040492236,15.027540127635001
22.902891834182515,120.27502964776198,15.027270110189914
22.902901623357884,120.27502883527312,15.026999597072601
22.902911363753226,120.27502796810165,15.02672834044695
22.902921054392944,120.2750270460323,15.026457827329635
22.902930695667276,120.27502606863447,15.026186198949814
22.902940286990866,120.27502503655404,15.02591395097971
22.902949827388106,120.27502394979099,15.025642074763775
22.902959316078523,120.27502280597719,15.025370446383953
22.90296875325723,120.27502160748078,15.025097578823566
22.902978137753514,120.27502035473233,15.024824587345122
22.90298746995761,120.2750190438567,15.024551471948623
22.902996748308556,120.2750176791596,15.024277241289616
22.9030059731966,120.27501625805762,15.024003754138946
22.903015143060774,120.27501478055072,15.023730762660504
22.90302425848644,120.27501324750008,15.023456408083439
22.903033318888237,120.27501165739868,15.023182301342487
22.90304232309545,120.27501001218411,15.022908194601536
22.903051270327587,120.27500831013406,15.022633344352245
22.9030601619505,120.27500655103326,15.022358741939067
22.903068994647143,120.27500473531228,15.022083519935608
22.903077770563836,120.2750028631864,15.021809041440486
22.90308648755426,120.27500093400975,15.021533447682858
22.903095145813534,120.27499894864351,15.021258721351623
22.903103744170938,120.27499690536537,15.02098325151205
22.903112283211833,120.27499480568234,15.020707905590534
22.903120761375252,120.27499264894854,15.020432063996791
22.903129179441684,120.27499043430285,15.020157337665557
22.903137535069686,120.27498816282169,15.019881372153758
22.903145830405577,120.27498583213692,15.019606150150299
22.903154061546953,120.27498344547782,15.019330308556556
22.90316223044502,120.27498100112211,15.01905496263504
22.903170336709533,120.27497849820865,15.018778997123242
22.903178378974655,120.27497593802914,15.018503403365612
22.903186355874542,120.27497331972245,15.018228181362153
22.903194269360398,120.27497064350386,15.017952711522579
22.903202117090782,120.27496790851224,15.017677117764949
22.90320989789497,120.274965115824,15.017401276171208
22.903217612748566,120.27496226500858,15.017126549839974
22.90322526145645,120.27495935498955,15.016851203918456
22.903232842652773,120.27495638641275,15.01657585799694
22.903240355166826,120.27495335970879,15.016300759911537
22.903247801340047,120.27495027401649,15.01602541399002
22.90325517805051,120.274947130197,15.015750315904617
22.903262484517736,120.27494392674333,15.015476333081722
22.90326972288805,120.27494066430134,15.015202350258827
22.903276889259047,120.27493734265573,15.01492774784565
22.903283985777048,120.27493396288294,15.014653269350529
22.903291010100613,120.27493052239953,15.014379162609577
22.903297964180943,120.2749270229278,15.014105427622795
22.903304846457075,120.27492346468303,15.013831320881843
22.90331165517293,120.27491984551236,15.013558453321457
22.903318390328508,120.27491616864508,15.01328558576107
22.90332505270429,120.2749124306366,15.013012346446514
22.903331640934432,120.27490863277866,15.01273972672224
22.903338153262858,120.27490477507125,15.012467850506306
22.903344591835886,120.27490085772965,15.012195478618144
22.903350953921834,120.27489688053859,15.01192360240221
22.903357240886546,120.27489284242162,15.011652345776557
22.903363450973938,120.27488874445518,15.01138059347868
22.90336958398889,120.27488458534756,15.01110995644331
22.903375638955804,120.27488036660576,15.010840310752391
22.903381617045397,120.2748760862922,15.010569178044795
22.90338751533087,120.27487174591387,15.01030015194416
22.903393335373185,120.27486734504022,15.010030754089355
22.903399074830897,120.27486288324067,15.00976209974289
22.90340473624057,120.27485835922351,15.009493321478367
22.90341031589492,120.27485377557217,15.009224667131901
22.903415815745152,120.27484913034907,15.008957375884055
22.903421233449823,120.27484442290834,15.008689588963986
22.90342656900893,120.27483965518758,15.00842341297865
22.903431822032235,120.2748348252492,15.00815661740303
22.90343699271486,120.27482993373907,15.007891061007976
22.90344207852024,120.27482498065719,15.007625876367092
22.903447082180058,120.27481996621881,15.007360567808151
22.903452001352875,120.27481488977813,15.007096126675606
22.90345683467285,120.27480975090454,15.006832305133342
22.90346158350582,120.2748045500286,15.006568979263305
22.903466244534744,120.27479928715036,15.00630627298355
22.903470821076667,120.27479396162393,15.006044310212134
22.903475310204787,120.27478857366458,15.005782471358776
22.90347971211422,120.27478312241121,15.005521376013755
22.90348402621961,120.27477760980135,15.005260900259017
22.903488251935592,120.27477203389745,15.005000920176506
22.903492387896332,120.27476639513009,15.00474180752039
22.903496435272547,120.27476069349923,15.004483562290668
22.903500393088635,120.27475492857435,15.00422519314289
22.903504260368997,120.27474910035542,15.003968063175678
22.903508035552672,120.27474320884244,15.003711428880692
22.903511720395745,120.27473725338956,15.003455166339874
22.903515312751885,120.27473123507322,15.003200390815735
22.903518813011342,120.27472515260168,15.002945367455482
22.90352222058875,120.27471900705137,15.002691459357738
22.903525534703633,120.27471279626947,15.002438170850278
22.903528753990148,120.27470652197822,15.002186245441436
22.903531878838532,120.27470018396237,15.001934443950653
22.903534909443913,120.27469378114546,15.001683138132096
22.903537844050202,120.27468731331223,15.001432947576046
22.90354068304764,120.27468078175437,15.001183748364449
22.90354342468015,120.27467418496491,15.00093529266119
22.903546070898937,120.27466752402024,15.000687456548214
22.903548616825987,120.27466079676755,15.000439372599125
22.903551066168593,120.27465400557493,15.000194882273673
22.903553417365785,120.27464714872015,14.99994840925932
22.903555669246845,120.27464022620316,14.99970416676998
22.9035578210313,120.2746332378087,14.999460296034814
22.90355987193866,120.27462618525907,14.99921729272604
22.90356182255429,120.27461906510965,14.998975528597832
22.903563672487948,120.2746118803745,14.998734631896019
22.903565418812835,120.27460462868542,14.998493983030318
22.90356706348015,120.27459731047301,14.998255192935467
22.903568605904532,120.27458992681372,14.998016774594783
22.90357004413478,120.27458247598521,14.997779471516608
22.90357137895138,120.2745749586334,14.997542540192605
22.903572607817765,120.27456737411238,14.997306724131107
22.903573732490013,120.27455972242217,14.997072271168232
22.903574751602292,120.27455200420863,14.996839057385921
22.903575663983876,120.27454421796476,14.99660584360361
22.9035764690494,120.27453636390584,14.996373992919922
22.90357716738424,120.27452844332359,14.996143009662628
22.903577758403017,120.27452045406514,14.995913141667844
22.903578240349663,120.27451239677637,14.995684512853622
22.90357861263881,120.27450427188784,14.995457247138024
22.903578875465584,120.27449607810782,14.99523010534048
22.903579029025103,120.27448781586689,14.995004202723504
22.903579071171045,120.27447948451922,14.994779415369033
22.903579001318047,120.2744710851412,14.994556238949299
22.903578820051475,120.27446261665642,14.994333434283734
22.903578526395727,120.27445407755788,14.994111497044564
22.90357811898496,120.27444547042901,14.993891170740127
22.903577599185017,120.27443679333223,14.993671835780143
22.903576963093492,120.27442804605225,14.9934532443285
22.903576213442072,120.2744192291273,14.993236139893531
22.903575347694193,120.27441034244974,14.993020026803016
22.903574365654734,120.27440138483547,14.992804905056953
22.90357326810418,120.27439235682273,14.992591270327567
22.90357205250596,120.27438325765802,14.992378255188465
22.903570718860085,120.27437408777189,14.99216635531187
22.903569267361668,120.27436484705672,14.991955694615841
22.90356769566927,120.2743555340055,14.991746273100375
22.903566004758492,120.2743461503405,14.99153796684742
22.90356419423909,120.27433669433947,14.991330528020859
22.90356226196475,120.27432716654059,14.991124700129031
22.90356020793547,120.27431756683623,14.990919739663601
22.903558032931727,120.27430789468819,14.990715894460678
22.90355573363648,120.2742981492353,14.990513040602208
22.90355331122045,120.27428833133872,14.990311921596527
22.9035507652934,120.27427844046024,14.990111546099186
22.903548093904124,120.27426847595399,14.989912161946297
22.903545297247742,120.27425843803526,14.989714636564255
22.903542375129142,120.27424832670404,14.989517111182213
22.903539325597112,120.27423814077628,14.989321692407131
22.9035361480663,120.27422788132839,14.989127141058445
22.903532845658624,120.27421754674573,14.988933704972267
22.903529411740003,120.27420713745889,14.988741755902767
22.903525848846993,120.27419665368313,14.988550178587436
22.90352215678448,120.27418609509553,14.988361327469349
22.90351833438174,120.2741754601891,14.988172352433205
22.903514380468053,120.27416474993261,14.987984740495682
22.90351029367758,120.27415396368022,14.987799359083175
22.903506075766398,120.2741431014319,14.987613853752613
22.90350172361259,120.27413216318769,14.987429959356785
22.903497238191754,120.27412114744057,14.987247551977635
22.90349261657709,120.27411005494402,14.98706564027071
22.903487861890515,120.27409888494456,14.986884843826294
22.90348296847355,120.27408763851864,14.986706401824952
22.90347794003348,120.27407631394394,14.98652820765972
22.90347277481422,120.27406491143574,14.986351128757
22.903467470084088,120.27405343002529,14.9861754129529
22.903462027599165,120.27404187111192,14.986001060247421
22.90345644579849,120.27403023265043,14.985827698886395
22.903450722730867,120.27401851550195,14.98565532886982
22.90344485937189,120.27400671902063,14.98548419803381
22.903438854745964,120.27399484213005,14.985315173804759
22.903432707292126,120.27398288655247,14.985146025657654
22.903426417010373,120.27397085035034,14.984978116691112
22.903419982534867,120.27395873330838,14.98481132298708
22.90341340406073,120.27394653628771,14.98464651197195
22.903406680612356,120.27393425735076,14.984481577038764
22.90339981043367,120.27392189725106,14.984318872630595
22.90339279450027,120.2739094560962,14.984156416058541
22.903385630665834,120.27389693280982,14.983995942175389
22.903378319515724,120.27388432739185,14.983835716128349
22.903370858708495,120.27387163930413,14.983676853179931
22.903363249414873,120.27385886833135,14.983519477248192
22.903355488708055,120.27384601425821,14.983362720906735
22.903347576783162,120.27383307665417,14.983207327663898
22.90333951364019,120.27382005551921,14.983052182257175
22.90333129849866,120.2738069507457,14.982899019539357
22.90332292921225,120.27379376147248,14.982746476411819
22.903314405780968,120.27378048737663,14.982594428956508
22.903305727619443,120.27376712791992,14.982443868517876
22.9032968949228,120.27375368396352,14.982294299423694
22.90328790554472,120.27374015400042,14.982145721673966
22.903278758314475,120.27372653824591,14.981997887432575
22.903269453232074,120.27371283637704,14.981851044535636
22.90325999010239,120.27369904785562,14.981705440819264
22.90325036814495,120.27368517289692,14.981560704529285
22.903240585603665,120.27367121010158,14.98141621607542
22.903230641307818,120.27365716011548,14.981273462474347
22.90322053720861,120.27364302250801,14.981131204545498
22.90321027037924,120.27362879641807,14.980989070534706
22.903199838673384,120.27361448216857,14.980848299622535
22.90318924501785,120.273600079006,14.98070839613676
22.903178486095587,120.27358558682272,14.980569731831551
22.903167561516366,120.27357100518817,14.98043106752634
22.903156470109455,120.27355633367178,14.980293394565582
22.903145212460224,120.27354157205824,14.980156465113163
22.903133787007704,120.27352672034758,14.980020650923253
22.903122193166542,120.2735117776248,14.97988483673334
22.903110429375772,120.27349674388994,14.979750013887882
22.903098496220753,120.27348161887386,14.979615438878536
22.90308639253077,120.27346640230748,14.979481731295586
22.90307411576926,120.27345109332963,14.979349138975143
22.903061668082543,120.27343569210178,14.979216298818589
22.90304904654382,120.27342019803191,14.979084078252315
22.903036251543327,120.27340461112003,14.978952972948552
22.903023281324984,120.27338893082788,14.9788221154809
22.90301013647415,120.27337315710167,14.978691258013248
22.90299681464939,120.27335728875734,14.97856102013588
22.90298331643606,120.27334132660218,14.978431277930737
22.90296964066344,120.2733252696136,14.97830165964365
22.90295578674617,120.2733091180607,14.97817253702879
22.902941751952568,120.27329287043648,14.978043910086155
22.902927538819196,120.27327652776356,14.977915159225464
22.902913144419248,120.27326008901932,14.977786780118942
22.902898570118573,120.27324355436521,14.977658277094363
22.902883811819642,120.2732269224019,14.977530765414238
22.90286887166878,120.27321019436728,14.977402634143829
22.902853747714786,120.27319336880817,14.97727487462759
22.902838438591818,120.27317644604747,14.97714711511135
22.902822945470593,120.2731594252779,14.977019975185394
22.902807266595037,120.27314230649944,14.97689171999693
22.902775838795808,120.27311190426018,15.20935195660591
22.90276665878539,120.27310207872095,15.335476126253605
22.90274845388503,120.27307942865659,15.4505484161973
22.90274598951818,120.27306671446544,15.30001499170065
22.902716372823708,120.27303161549594,15.282183183372021
22.902695518192406,120.27301435131878,15.270405515611172
22.902676343740275,120.27300135179314,15.240408423841
22.902656793877075,120.27298400222823,15.212743098139763
22.902637163429272,120.27296549071168,15.185961432099342
22.902619836569357,120.27294961919186,15.110967835247516
22.902597953069773,120.27293015807628,15.057733629524707
22.902579508952172,120.27291499455094,15.00554169857502
22.902557616867302,120.27289680238407,15.074358599901199
22.902552182187183,120.27289349317122,15.087713620603084
22.90254740467156,120.27289027297907,15.096577479183674
22.9025521765287,120.27289895556565,15.006332543611526
22.902550158791758,120.272908044289,14.963346980750561
22.90255370880684,120.27292935543676,14.923635580778122
22.90254861305033,120.27294668080891,15.052300690174103
22.902560771764183,120.27297993173765,15.104998454630374
22.902567807599834,120.2730051466909,15.150413554906844
22.902577199900918,120.27303091051547,15.143899678349495
22.902580439284804,120.27305276953884,15.164527449786663
22.902584997680556,120.27307683532305,15.18698474740982
22.902589484467235,120.27309860621378,15.206584742486477
22.902592880922796,120.27311456314825,15.226207662403583
22.902593916230042,120.27312330725276,15.245986842989922
22.902592360537493,120.27312472049681,15.246096014797688
22.90258429349212,120.27311642827735,15.254828891992569
22.90257221731407,120.27310349352584,15.263973796725272
22.902565780887365,120.27309586115753,15.126496998250484
22.902542726276945,120.27307429963231,15.055775476396084
22.902523110268028,120.27306037690707,14.989332968950272
22.90249334372132,120.27303869105427,15.092631556510925
22.90248060725686,120.27303010507723,15.118031784057617
22.902462017969906,120.27301158729047,15.136567199110985
22.902442889371,120.27299145082313,15.13127825254202
22.902420405291746,120.27297019599953,15.140375696659088
22.902400928793703,120.27295077333939,15.150145272314548
22.90239135951869,120.2729347424004,15.08537652605772
22.902381863999068,120.27291116875966,15.053097483277321
22.90238105776282,120.27289077647889,15.023577228188515
22.90237859924957,120.2728652375204,15.110687284767627
22.902390565770123,120.27284906756057,15.144904282033444
22.902400983232212,120.27282611592108,15.17406988364458
22.902414941148493,120.27280337929832,15.149976495921612
22.902423813064278,120.27277609207061,15.152684972882271
22.902434502914023,120.27275157301547,15.157306496798991
22.902448238978753,120.27272912697482,15.119490547418595
22.902459441799238,120.27270268261819,15.099538625061513
22.902473895125453,120.2726802493063,15.08087247645855
22.90249504672955,120.27266566753721,15.000669488430024
22.90251391035536,120.27265018067605,14.947376669466495
22.902537132964184,120.27264141232666,14.895977318406105
22.902543815047096,120.27261979403157,15.14872467571497
22.90257794604018,120.27262530899274,15.26271640020609
22.90260096357778,120.27261481238057,15.363424232959748
22.902646153392713,120.27261996932135,15.057297809720039
22.902651642511337,120.27259472257307,14.952556692063808
22.902667992600037,120.27260271236973,14.854133040845394
22.9026689882979,120.27261440195488,14.954590683043003
22.902686313206615,120.27264842786226,14.955254016399383
22.902694117620335,120.27267403241567,14.950660002291203
22.902698012412632,120.27269494248586,14.990116750657558
22.902705246100062,120.27272000805762,15.01400331914425
22.90271129014025,120.27274347832078,15.03608824300766
22.90271714237738,120.2727674011148,15.053428592324257
22.90272207072084,120.27279257762608,15.073663295686245
22.902727139160532,120.2728194673419,15.0939069211483
22.902743634808825,120.2728565191964,14.940324740707874
22.90274402543926,120.27287858656265,14.8659729154706
22.90275056196258,120.27291024437598,14.79575065946579
22.902751317857845,120.27293841811051,14.826655079245567
22.902762803407352,120.27297397101027,14.809655256748199
22.902770499919658,120.27300291920879,14.789114475786686
22.902774823976173,120.27302708921827,14.806476882517337
22.902781927323378,120.27305395657127,14.809896773040295
