Latitude,Longitude,Altitude (m)
-21.919086,167.05624,11565.109
-21.936249,167.04408,11565.236
-21.95346,167.0305,11565.297
-21.970663,167.01807,11565.251
-21.987879,167.00386,11565.242
-22.005075,166.9902,11565.233
-22.022245,166.97874,11565.101
-22.039429,166.96555,11564.972
-22.056568,166.95421,11564.74
-22.073706,166.94348,11564.352
-22.090883,166.92908,11564.067
-22.108019,166.91666,11563.782
-22.125141,166.90587,11563.378
-22.142286,166.89284,11563.002
-22.159418,166.88069,11562.601
-22.17657,166.86653,11562.307
-22.193695,166.85284,11562.068
-22.210821,166.84007,11561.82
-22.227922,166.83006,11561.389
-22.245058,166.81717,11560.972
-22.262197,166.80295,11560.669
-22.279306,166.79037,11560.372
-22.296402,166.77972,11559.946
-22.313517,166.76768,11559.483
-22.330606,166.75854,11558.827
-22.347713,166.74808,11558.089
-22.36484,166.73506,11557.448
-22.381979,166.72003,11557.021
-22.39906,166.70988,11556.472
-22.416176,166.69926,11555.82
-22.433302,166.68889,11555.056
-22.450413,166.68103,11554.065
-22.46756,166.66937,11553.13
-22.484669,166.65901,11552.168
-22.501781,166.64752,11551.258
-22.518898,166.63438,11550.481
-22.535969,166.62508,11549.576
-22.553085,166.61356,11548.666
-22.570187,166.60222,11547.7705
-22.587305,166.58955,11546.97
-22.604448,166.5732,11546.471
-22.621532,166.56139,11545.963
-22.63863,166.55136,11545.29
-22.655796,166.53665,11544.777
-22.672947,166.52205,11544.41
-22.690111,166.5064,11544.226
-22.707294,166.48828,11544.34
-22.724476,166.47084,11544.655
-22.741667,166.45415,11545.075
-22.758844,166.44058,11545.388
-22.776033,166.42946,11545.437
-22.79324,166.41835,11545.289
-22.81046,166.40303,11545.27
-22.827625,166.39061,11545.194
-22.844765,166.38052,11544.9
-22.861937,166.3679,11544.578
-22.8791,166.35646,11544.159
-22.896275,166.3436,11543.755
-22.913485,166.32759,11543.55
-22.93067,166.31364,11543.394
-22.947847,166.3021,11543.116
-22.965048,166.29088,11542.705
-22.982273,166.27875,11542.234
-22.99952,166.2651,11541.836
-23.016737,166.25333,11541.393
-23.03396,166.24252,11540.832
-23.051233,166.22803,11540.401
-23.068493,166.21375,11540.078
-23.085732,166.20166,11539.687
-23.102968,166.189,11539.246
-23.12015,166.17532,11538.818
-23.137259,166.16118,11538.44
-23.154306,166.14453,11538.258
-23.17129,166.12933,11538.147
-23.188238,166.11496,11538.036
-23.205156,166.10191,11537.841
-23.222067,166.0907,11537.454
-23.238989,166.07896,11536.953
-23.255941,166.06349,11536.612
-23.272886,166.04694,11536.477
-23.28981,166.03236,11536.384
-23.306767,166.01718,11536.337
-23.323753,166.00136,11536.3545
-23.340733,165.98741,11536.319
-23.357718,165.97464,11536.169
-23.374712,165.96199,11535.908
-23.391697,165.94928,11535.589
-23.408632,165.9419,11534.895
-23.42564,165.92801,11534.28
-23.442614,165.91512,11533.691
-23.459606,165.89874,11533.342
-23.476538,165.88625,11532.939
-23.493505,165.87144,11532.6
-23.510475,165.85481,11532.435
-23.527418,165.83804,11532.438
-23.544334,165.82327,11532.451
-23.561214,165.81317,11532.156
-23.578123,165.80098,11531.764
-23.59502,165.7874,11531.379
-23.611887,165.77243,11531.116
-23.628683,165.76393,11530.535
-23.645521,165.75189,11529.893
-23.662369,165.7358,11529.469
-23.679178,165.72064,11529.174
-23.695936,165.71,11528.687
-23.712755,165.69592,11528.2295
-23.729513,165.68575,11527.587
-23.746284,165.6751,11526.814
-23.76305,165.66205,11526.085
-23.779825,165.64851,11525.434
-23.796581,165.63368,11524.943
-23.813313,165.62062,11524.453
-23.830036,165.6106,11523.757
-23.846815,165.5976,11523.065
-23.86358,165.58324,11522.491
-23.88035,165.56837,11522.049
-23.89711,165.55238,11521.782
-23.913887,165.53395,11521.805
-23.930634,165.51787,11521.91
-23.947336,165.50864,11521.648
-23.964106,165.49738,11521.183
-23.980923,165.48026,11520.948
-23.997675,165.46405,11520.898
-24.01436,165.45491,11520.54
-24.031078,165.44467,11519.954
-24.04784,165.42914,11519.517
-24.064539,165.41486,11519.165
-24.081224,165.40173,11518.793
-24.09791,165.3889,11518.356
-24.114597,165.37573,11517.921
-24.131268,165.36095,11517.575
-24.147896,165.34836,11517.167
-24.164524,165.33742,11516.589
-24.181196,165.32019,11516.278
-24.197786,165.30695,11515.967
-24.21437,165.29489,11515.546
-24.23096,165.28331,11515.001
-24.24754,165.27249,11514.314
-24.264126,165.26012,11513.618
-24.280682,165.24788,11512.917
-24.297253,165.23422,11512.294
-24.313808,165.21954,11511.79
-24.330324,165.20885,11511.153
-24.346893,165.19313,11510.675
-24.363428,165.18027,11510.177
-24.379963,165.16747,11509.664
-24.396526,165.15213,11509.279
-24.413069,165.13708,11509.004
-24.429611,165.12209,11508.806
-24.446135,165.10939,11508.521
-24.462679,165.09442,11508.294
-24.479218,165.08095,11508.037
-24.495722,165.06956,11507.632
-24.512272,165.05539,11507.263
-24.528847,165.0362,11507.256
-24.545385,165.01697,11507.562
-24.561897,165.00237,11507.804
-24.578426,164.99019,11507.815
-24.595007,164.97633,11507.741
-24.611578,164.96196,11507.66
-24.62811,164.95116,11507.365
-24.644672,164.93942,11506.945
-24.661236,164.92773,11506.431
-24.677795,164.91437,11505.937
-24.694363,164.89848,11505.619
-24.710928,164.88322,11505.39
-24.727493,164.86827,11505.214
-24.744036,164.85654,11504.869
-24.760826,164.81625,11506.142
-24.777962,164.7139,11512.653
-24.794886,164.59546,11524.54
-24.811747,164.47972,11540.447
-24.828804,164.36339,11559.373
-24.846008,164.25818,11580.011
-24.863337,164.16336,11601.437
-24.880766,164.071,11623.444
-24.898247,163.9793,11646.034
-24.915691,163.88528,11669.382
-24.932983,163.7926,11693.278
-24.950228,163.70569,11717.121
-24.967533,163.61816,11740.87
-24.984882,163.52852,11764.676
-25.002234,163.44077,11788.407
-25.01959,163.35541,11811.94
-25.036985,163.26813,11835.401
-25.054434,163.1768,11859.038
-25.07185,163.08797,11882.679
-25.089241,163.00473,11905.952
-25.106632,162.9258,11928.62
-25.124031,162.84781,11950.735
-25.14142,162.76863,11972.481
-25.15887,162.67972,11994.485
-25.176025,162.6175,12015.273
-25.192469,162.63394,12030.5205
-25.208994,162.65585,12040.472
-25.225563,162.67987,12046.161
-25.24212,162.69617,12049.123
-25.25863,162.69943,12050.73
-25.275036,162.70203,12051.304
-25.291485,162.69643,12051.346
-25.307947,162.68968,12050.924
-25.324533,162.67691,12050.321
-25.341297,162.65948,12049.822
-25.358078,162.639,12049.732
-25.374804,162.62413,12049.673
-25.391539,162.60974,12049.571
-25.408297,162.59404,12049.488
-25.42505,162.58069,12049.316
-25.441837,162.56389,12049.265
-25.458624,162.5476,12049.308
-25.475393,162.53265,12049.35
-25.492151,162.51935,12049.278
-25.50888,162.50923,12048.921
-25.525637,162.49792,12048.376
-25.542406,162.48495,12047.803
-25.559156,162.47255,12047.196
-25.575914,162.45871,12046.629
-25.592667,162.44441,12046.127
-25.609436,162.42873,12045.741
-25.62622,162.41151,12045.53
-25.642965,162.39899,12045.217
-25.659735,162.38623,12044.785
-25.676573,162.36595,12044.693
-25.693367,162.34955,12044.724
-25.710148,162.33376,12044.792
-25.72692,162.3183,12044.845
-25.743677,162.30489,12044.7705
-25.760448,162.29004,12044.67
-25.777206,162.27603,12044.514
-25.793966,162.26239,12044.3
-25.81072,162.24861,12044.044
-25.827427,162.23784,12043.595
-25.844193,162.22116,12043.2705
-25.860996,162.19957,12043.379
-25.877762,162.17943,12043.779
-25.894482,162.16542,12044.056
-25.91118,162.15651,12043.883
-25.92789,162.149,12043.241
-25.944645,162.13625,12042.531
-25.9614,162.12059,12042.004
-25.978117,162.10574,12041.598
-25.994751,162.09682,12040.937
-26.0114,162.08655,12040.068
-26.0281,162.07047,12039.364
-26.04474,162.06033,12038.512
-26.061401,162.04805,12037.633
-26.078112,162.02861,12037.131
-26.094738,162.01628,12036.607
-26.111366,162.00342,12036.026
-26.128107,161.97888,12036.033
-26.144796,161.95937,12036.319
-26.161455,161.94197,12036.688
-26.178114,161.92491,12037.061
-26.194761,161.9122,12037.189
-26.21141,161.89954,12037.12
-26.228037,161.88896,12036.791
-26.244667,161.87874,12036.223
-26.261318,161.86688,12035.569
-26.277977,161.85054,12035.11
-26.294687,161.82826,12035.1455
-26.311356,161.80855,12035.462
-26.327974,161.79482,12035.627
-26.344633,161.77962,12035.689
-26.361305,161.76524,12035.649
-26.377962,161.75148,12035.519
-26.39458,161.74109,12035.13
-26.411238,161.72673,12034.743
-26.427862,161.71376,12034.311
-26.444448,161.7043,12033.638
-26.46099,161.70218,12032.3125
-26.477676,161.68811,12031.076
-26.494442,161.66112,12030.738
-26.511047,161.64732,12030.491
-26.527683,161.63016,12030.359
-26.544323,161.61586,12030.141
-26.561049,161.59476,12030.245
-26.577715,161.57735,12030.451
-26.594341,161.56406,12030.493
-26.611053,161.54318,12030.786
-26.62773,161.52252,12031.366
-26.644344,161.50523,12031.973
-26.661007,161.48653,12032.605
-26.677633,161.47215,12033.058
-26.69423,161.46497,12032.937
-26.710825,161.45871,12032.268
-26.727484,161.44777,12031.417
-26.744173,161.43213,12030.747
-26.76078,161.42159,12029.982
-26.777367,161.41444,12028.877
-26.794039,161.40112,12027.781
-26.810743,161.38371,12026.979
-26.827414,161.36862,12026.311
-26.844044,161.35953,12025.389
-26.860718,161.34724,12024.391
-26.877398,161.3343,12023.407
-26.89403,161.32526,12022.235
-26.910723,161.30884,12021.289
-26.927498,161.28108,12021.203
-26.944214,161.24994,12022.068
-26.9607,161.22952,12023.038
-26.977007,161.21288,12023.715
-26.993147,161.19307,12024.27
-27.00887,161.18642,12024.057
-27.02427,161.18227,12023.019
-27.039518,161.1665,12021.97
-27.054487,161.15353,12020.897
-27.06928,161.13637,12020.015
-27.083958,161.1173,12019.347
-27.098766,161.07422,12020.157
-27.113565,161.02019,12022.926
-27.128157,160.98004,12026.548
-27.142794,160.94061,12030.629
-27.157316,160.92253,12033.883
-27.171875,160.90921,12036.142
-27.18657,160.8855,12038.181
-27.201176,160.86818,12039.884
-27.21572,160.85526,12041.06
-27.230228,160.8424,12041.753
-27.244694,160.8352,12041.686
-27.259167,160.83223,12040.71
-27.273674,160.82468,12039.24
-27.28816,160.82356,12037.052
-27.30268,160.81718,12034.574
-27.31724,160.80182,12032.386
-27.331831,160.78009,12030.82
-27.34634,160.76553,12029.379
-27.360937,160.74283,12028.388
-27.375414,160.73859,12026.767
-27.390026,160.72623,12024.986
-27.404676,160.70915,12023.415
-27.419365,160.6875,12022.343
-27.434036,160.66281,12021.885
-27.448574,160.65167,12021.156
-27.463171,160.63712,12020.258
-27.477737,160.63205,12018.708
-27.49239,160.616,12017.242
-27.507193,160.58276,12016.861
-27.521643,160.58148,12015.762
-27.53615,160.57661,12013.996
-27.550985,160.5369,12013.606
-27.565565,160.51854,12013.45
-27.580173,160.49666,12013.501
-27.594828,160.4699,12013.946
-27.60946,160.45001,12014.389
-27.624058,160.43529,12014.524
-27.63857,160.43013,12013.831
-27.653221,160.4196,12012.69
-27.667887,160.40471,12011.574
-27.682474,160.38664,12010.718
-27.697134,160.35957,12010.489
-27.711714,160.33667,12010.614
-27.726233,160.32098,12010.547
-27.740818,160.30255,12010.386
-27.755426,160.28395,12010.2
-27.77008,160.26036,12010.307
-27.784716,160.23534,12010.806
-27.799273,160.21658,12011.268
-27.813839,160.1972,12011.663
-27.828407,160.17764,12012.015
-27.842966,160.15825,12012.319
-27.857456,160.14815,12012.085
-27.871998,160.13203,12011.711
-27.886595,160.10817,12011.6875
-27.901094,160.08948,12011.751
-27.91553,160.07603,12011.521
-27.930046,160.05644,12011.316
-27.944515,160.04182,12010.925
-27.959005,160.02339,12010.577
-27.973543,159.99873,12010.621
-27.988089,159.97096,12011.205
-28.002506,159.95578,12011.555
-28.016941,159.94011,12011.609
-28.031418,159.92258,12011.516
-28.045895,159.90541,12011.344
-28.060354,159.88576,12011.283
-28.07481,159.86644,12011.287
-28.089254,159.84543,12011.44
-28.10362,159.83214,12011.281
-28.118103,159.80574,12011.5205
-28.132566,159.78111,12012.065
-28.146908,159.7673,12012.287
-28.161325,159.74702,12012.497
-28.175657,159.73729,12012.158
-28.190023,159.72403,12011.542
-28.204332,159.71742,12010.342
-28.218721,159.70026,12009.251
-28.23312,159.67897,12008.538
-28.24745,159.65999,12008.055
-28.261812,159.63655,12007.908
-28.276134,159.62172,12007.563
-28.290493,159.60452,12007.144
-28.30488,159.58844,12006.597
-28.31929,159.56996,12006.139
-28.333694,159.55167,12005.746
-28.348082,159.53288,12005.456
-28.362476,159.51176,12005.3545
-28.376905,159.48631,12005.6455
-28.391245,159.46819,12005.873
-28.405588,159.45206,12005.873
-28.419954,159.43303,12005.838
-28.434301,159.41714,12005.65
-28.448608,159.40297,12005.245
-28.462952,159.38295,12004.963
-28.477322,159.35637,12005.191
-28.491613,159.33409,12005.6455
-28.505892,159.31137,12006.241
-28.520185,159.29059,12006.81
-28.534468,159.27342,12007.165
-28.548704,159.26196,12007.015
-28.562962,159.25061,12006.43
-28.57722,159.23975,12005.494
-28.591417,159.23361,12004.043
-28.605705,159.21404,12002.877
-28.619938,159.19568,12001.947
-28.63417,159.17282,12001.448
-28.648417,159.14537,12001.53
-28.66265,159.11781,12002.103
-28.676844,159.09563,12002.757
-28.691067,159.07117,12003.572
-28.705313,159.0444,12004.664
-28.719402,159.03694,12004.959
-28.733479,159.0321,12004.359
-28.747719,159.01044,12003.936
-28.761887,158.99007,12003.777
-28.775915,158.97874,12003.322
-28.790035,158.95699,12003.078
-28.80413,158.93895,12002.843
-28.818195,158.92336,12002.477
-28.832289,158.90419,12002.156
-28.846403,158.88551,12001.864
-28.860481,158.87167,12001.375
-28.874529,158.85979,12000.589
-28.88869,158.83638,12000.151
-28.902855,158.81174,12000.162
-28.916985,158.78622,12000.612
-28.931087,158.76562,12001.087
-28.945171,158.75255,12001.12
-28.959354,158.73172,12001.176
-28.973522,158.71394,12001.159
-28.987747,158.6886,12001.515
-29.001873,158.67464,12001.587
-29.016014,158.6605,12001.362
-29.030096,158.65796,12000.223
-29.04425,158.6507,11998.553
-29.058424,158.64346,11996.492
-29.072628,158.63153,11994.425
-29.086847,158.61179,11992.817
-29.101007,158.59601,11991.372
-29.115189,158.57315,11990.393
-29.129406,158.54118,11990.248
-29.143417,158.51956,11990.272
-29.157314,158.50076,11990.153
-29.171156,158.47011,11990.547
-29.184725,158.44908,11990.927
-29.198101,158.43228,11991.029
-29.211456,158.40234,11991.587
-29.22469,158.37372,11992.54
-29.237782,158.34935,11993.596
-29.250814,158.32655,11994.575
-29.26387,158.30313,11995.476
-29.276934,158.27951,11996.374
-29.289997,158.25214,11997.496
-29.303026,158.22826,11998.607
-29.31607,158.20337,11999.761
-29.329079,158.1806,12000.834
-29.342018,158.16856,12001.21
-29.355103,158.14201,12001.759
-29.36825,158.1054,12003.124
-29.381218,158.08195,12004.5205
-29.394165,158.06345,12005.533
-29.40723,158.03583,12006.657
-29.4203,158.00928,12007.904
-29.433323,157.98677,12009.06
-29.446405,157.95747,12010.45
-29.459496,157.92847,12012.074
-29.472515,157.90508,12013.614
-29.48552,157.8831,12014.918
-29.498594,157.8569,12016.2295
-29.511585,157.84158,12017.026
-29.524557,157.82854,12017.227
-29.537687,157.79501,12018.032
-29.55077,157.76021,12019.573
-29.563684,157.7373,12021.078
-29.576586,157.71786,12022.183
-29.589428,157.71393,12022.078
-29.602392,157.70287,12021.318
-29.615337,157.69078,12020.19
-29.628277,157.6758,12018.972
-29.641216,157.65498,12018.029
-29.654055,157.63774,12017.149
-29.6669,157.61737,12016.384
-29.679789,157.59195,12015.965
-29.692604,157.57373,12015.495
-29.705492,157.54922,12015.264
-29.71831,157.531,12014.962
-29.731165,157.50688,12014.884
-29.74399,157.48376,12014.971
-29.756792,157.46074,12015.194
-29.769567,157.43977,12015.39
-29.782366,157.4172,12015.65
-29.795135,157.39536,12015.932
-29.807892,157.37764,12015.997
-29.820602,157.3646,12015.613
-29.83337,157.34804,12015.014
-29.84613,157.33057,12014.351
-29.858868,157.31528,12013.531
-29.871666,157.28966,12013.122
-29.884348,157.27576,12012.461
-29.897058,157.25816,12011.711
-29.909779,157.23882,12010.98
-29.922518,157.21442,12010.583
-29.935148,157.2008,12009.905
-29.94776,157.18967,12008.792
-29.960442,157.17096,12007.704
-29.97315,157.14603,12007.065
-29.985735,157.1277,12006.501
-29.998375,157.10283,12006.249
-30.011059,157.06995,12006.737
-30.023695,157.03938,12007.748
-30.036268,157.01416,12008.856
-30.048803,156.99956,12009.373
-30.061487,156.97409,12009.973
-30.074183,156.9456,12010.929
-30.086775,156.92401,12011.843
-30.099339,156.90845,12012.307
-30.111927,156.89308,12012.348
-30.124586,156.86989,12012.482
-30.137194,156.85104,12012.525
-30.149805,156.83186,12012.475
-30.162457,156.8111,12012.417
-30.17514,156.7854,12012.657
-30.187777,156.76578,12012.815
-30.2004,156.74995,12012.629
-30.213139,156.7251,12012.633
-30.225891,156.70041,12012.876
-30.238583,156.67992,12013.095
-30.251377,156.65128,12013.669
-30.264141,156.62848,12014.2705
-30.27689,156.61185,12014.511
-30.289759,156.58394,12015.011
-30.302565,156.5661,12015.265
-30.315403,156.54764,12015.304
-30.328253,156.52983,12015.134
-30.341116,156.5115,12014.814
-30.35405,156.4872,12014.714
-30.366962,156.46172,12014.9
-30.379894,156.43456,12015.389
-30.3928,156.41182,12015.872
-30.405754,156.38348,12016.632
-30.41874,156.35403,12017.68
-30.431711,156.32582,12018.937
-30.44461,156.30804,12019.779
-30.457537,156.29137,12020.143
-30.470524,156.26804,12020.493
-30.483452,156.24872,12020.7
-30.496365,156.22581,12020.958
-30.509216,156.20856,12020.963
-30.522133,156.18086,12021.296
-30.535025,156.15265,12021.972
-30.547817,156.13313,12022.459
-30.560616,156.11688,12022.508
-30.573385,156.10883,12021.756
-30.586302,156.08237,12021.342
-30.599195,156.05392,12021.451
-30.611984,156.03113,12021.723
-30.6248,156.00554,12022.159
-30.637579,155.98463,12022.485
-30.650396,155.96146,12022.794
-30.663212,155.93935,12023.055
-30.676071,155.91292,12023.534
-30.68889,155.89182,12023.95
-30.701647,155.87437,12024.092
-30.714437,155.85449,12024.0625
-30.727264,155.83078,12024.143
-30.740047,155.80864,12024.28
-30.752838,155.78465,12024.536
-30.765615,155.76135,12024.861
-30.778378,155.741,12025.06
-30.791143,155.71971,12025.19
-30.80393,155.69626,12025.38
-30.81666,155.67944,12025.29
-30.829422,155.6577,12025.204
-30.842249,155.62415,12025.798
-30.85494,155.60303,12026.363
-30.86756,155.58978,12026.361
-30.880262,155.56975,12026.172
-30.892973,155.54916,12025.948
-30.905653,155.52856,12025.747
-30.918283,155.51039,12025.425
-30.930933,155.48969,12025.101
-30.943584,155.46643,12024.946
-30.956223,155.4386,12025.196
-30.96885,155.40976,12025.82
-30.981419,155.38667,12026.454
-30.993942,155.36961,12026.722
-31.00649,155.35225,12026.641
-31.019045,155.33405,12026.372
-31.031612,155.31197,12026.192
-31.044159,155.28691,12026.294
-31.056595,155.27345,12025.998
-31.069077,155.25613,12025.485
-31.081728,155.21732,12025.967
-31.094284,155.18427,12027.12
-31.106787,155.15546,12028.542
-31.119215,155.13885,12029.419
-31.131723,155.12248,12029.757
-31.144262,155.10612,12029.689
-31.15687,155.07883,12029.941
-31.169428,155.05405,12030.405
-31.18189,155.03937,12030.493
-31.194342,155.0245,12030.167
-31.20687,155.00395,12029.769
-31.219442,154.9763,12029.771
-31.231936,154.95467,12029.838
-31.24442,154.93156,12029.989
-31.25691,154.91005,12030.1045
-31.269337,154.8945,12029.879
-31.281803,154.87569,12029.4795
-31.294312,154.85318,12029.184
-31.306784,154.83112,12029.021
-31.319223,154.81046,12028.881
-31.331646,154.78918,12028.757
-31.344046,154.77174,12028.41
-31.356443,154.75433,12027.88
-31.36884,154.73546,12027.271
-31.38129,154.70879,12027.06
-31.39372,154.67805,12027.455
-31.40606,154.65372,12028.012
-31.418404,154.62837,12028.664
-31.430727,154.60806,12029.104
-31.443045,154.59225,12029.122
-31.455368,154.57938,12028.607
-31.467741,154.56078,12027.996
-31.48017,154.53319,12027.86
-31.49255,154.50401,12028.272
-31.504812,154.48495,12028.534
-31.5171,154.46718,12028.483
-31.529491,154.43982,12028.68
-31.54185,154.4169,12028.94
-31.554178,154.39565,12029.151
-31.566523,154.37465,12029.288
-31.578833,154.35823,12029.132
-31.591162,154.33812,12028.8955
-31.603493,154.31549,12028.76
-31.615784,154.29614,12028.541
-31.628036,154.28113,12028.014
-31.640337,154.25854,12027.599
-31.65268,154.22952,12027.67
-31.66493,154.2073,12027.843
-31.67717,154.18672,12027.927
-31.689453,154.16345,12028.043
-31.701738,154.13982,12028.255
-31.713963,154.12286,12028.193
