Latitude,Longitude,Altitude (m)
22.903271378885496,120.273462604196,12.069263970851898
22.903265821286602,120.27346142704585,12.04382734298706
22.90326024560271,120.27346018380318,12.018446990847586
22.903254651571718,120.27345887410598,11.993119244277477
22.90324903963046,120.27345749660965,11.967846550047396
22.90324341030314,120.27345605183135,11.942627684772013
22.9032377645508,120.27345453863333,11.917465095221996
22.903232101936595,120.27345295655014,11.89235511124134
22.90322642315947,120.27345130506464,11.86730507314205
22.903220729005728,120.27344958355624,11.842311310768126
22.90321501973747,120.27344779109406,11.817373824119567
22.903209295704162,120.27344592747123,11.792496283352374
22.903203557342646,120.2734439921706,11.767681135237217
22.903197805526588,120.273441984313,11.742925933003425
22.903192039906518,120.27343990363985,11.718231900036335
22.90318626153085,120.27343774968574,11.693601483106612
22.903180471273245,120.27343552105431,11.669037128984927
22.903174668347408,120.27343321821101,11.644538837671279
22.903168854500674,120.27343084027669,11.620109055936336
22.90316302938358,120.2734283864756,11.595747783780096
22.903157193869795,120.2734258563423,11.571458691358565
22.903151347959323,120.27342324941137,11.547243002057074
22.903145492700563,120.27342056490706,11.523103162646292
22.903139628180885,120.27341780246735,11.499042843282222
22.903133755361328,120.27341496173025,11.475065714120865
22.903127873805058,120.27341204192003,11.451170551776885
22.903121984909948,120.27340904226094,11.42736224979162
22.903116088763365,120.27340596254612,11.40364325493574
22.90311018554004,120.27340280256871,11.380020907521248
22.903104276987325,120.27339956103583,11.356495207548141
22.903098361969437,120.2733962376889,11.333073495328426
22.903092441622153,120.27339283232104,11.309759441018103
22.903086516906512,120.27338934400137,11.286557938158511
22.90308058790988,120.27338577241963,11.263470210134981
22.90307465463226,120.27338211747237,11.240508490800856
22.90306871829679,120.27337837791839,11.217680120468138
22.90306277951504,120.27337455344744,11.194983875751495
22.90305683819964,120.27337064364576,11.17243076711893
22.9030508951369,120.27336664835822,11.15003180503845
22.903044951200485,120.27336256639536,11.127793106436728
22.903039005778833,120.27335839791233,11.1057232350111
22.903033060357178,120.2733541421851,11.083829531073569
22.90302711537236,120.27334979874824,11.062129122018813
22.90302117099911,120.27334536723974,11.040628124773502
22.903015227849004,120.2733408469873,11.019339996576308
22.90300928670834,120.27333623768062,10.998280641436576
22.903003347751852,120.27333153875082,10.977462293207644
22.902997411591116,120.27332675004278,10.956900855898857
22.902991478662965,120.27332187103933,10.936609786748885
22.90298554957897,120.27331690101644,10.916609883308409
22.902979624863328,120.27331184002584,10.896920719742774
22.902973705302347,120.27330668739522,10.877559423446653
22.902967790808663,120.27330144260742,10.8585529088974
22.902961882343313,120.2732961057659,10.83992319703102
22.90295598008103,120.27329067604316,10.821694755554198
22.902950084808115,120.27328515354267,10.803894498944281
22.902944196786677,120.27327953754042,10.786557905375956
22.90293831723985,120.27327382772607,10.769710665941238
22.902932445643433,120.27326802440996,10.753391928970812
22.902926583395303,120.27326212655775,10.737638396024703
22.90292073040809,120.27325613416947,10.722491662204265
22.902914887468096,120.27325004724509,10.707993322610854
22.9029090551869,120.2732438654226,10.6941947594285
22.902903233913957,120.27323758854688,10.68114368468523
22.90289742426085,120.27323121620418,10.668900044262408
22.902891626751774,120.27322474860138,10.657520113885402
22.902885842173035,120.27321818563503,10.647068732976912
22.902880070612003,120.27321152715,10.637622974812983
22.902874312854976,120.27320477309456,10.629256242513655
22.902868569076695,120.2731979236756,10.622052949666976
22.90286284067503,120.27319097853108,10.61610362678766
22.902857127387886,120.2731839383333,10.611508591473102
22.902851430088926,120.27317680287543,10.608374278247355
22.90284574956446,120.27316957262289,10.606819355487822
22.90284008651342,120.27316224757568,10.606972278654574
22.902834440935813,120.2731548283544,10.608971290290354
22.90282881379267,120.2731473152176,10.612971760332583
22.902823205695565,120.27313970909618,10.61913517564535
22.902817617518174,120.27313200973157,10.627649937570094
22.90281204930417,120.27312421846835,10.638711787760256
22.90280650258249,120.27311633603057,10.652540935575962
22.902800977615225,120.27310836309051,10.669372271001338
22.90279547492658,120.27310030078591,10.689473715424537
22.90278999582707,120.27309215009939,10.713125424087046
22.902784540666158,120.27308391242725,10.74064792394638
22.90277911031751,120.27307558901067,10.772384986281393
22.902773705873226,120.27306718145283,10.808713413774965
22.902768327551716,120.27305869177064,10.850050380825996
22.90276297701296,120.27305012125699,10.896849763393401
22.902757654824843,120.27304147254938,10.94961070269346
22.90274758632915,120.27302608589574,11.409793213009833
22.9027374592101,120.27301027018375,11.77976084202528
22.90271850661143,120.2729880197342,12.176510822772979
22.902677205365755,120.27294266358862,13.550168247520922
22.902636128872064,120.27290114523076,14.643917554616927
22.902594274373936,120.27286367904757,15.708279922604559
22.902551363475965,120.27282769609324,16.77498140335083
22.902511688831815,120.27279622924118,17.638625386357305
22.90247859791369,120.27276756602028,18.381411132216453
22.90245317341894,120.27273905760998,19.100857132673262
22.902433236585686,120.27271289398432,19.704102323949336
22.90241270347166,120.27269017501743,20.28349150121212
22.902391131737,120.2726751500626,20.672207510471342
22.902371589147993,120.27266649636442,21.188106659054753
22.902364093527385,120.27266494944784,21.65932043492794
22.902381624356806,120.27268509463349,21.064270702004432
22.902398005653,120.2727004169788,21.375876733660697
22.90241506015674,120.27271427008432,21.43784120082855
22.902435894993207,120.27274063898207,21.19222212731838
22.902444375896806,120.27276748293919,21.24133860170841
22.902428981587256,120.27279306307084,21.167959949374197
22.90239007822027,120.27281983871165,21.24965762197971
22.90234752801756,120.27285258900234,21.229099854826924
22.90231520689136,120.27288813529613,21.22960144281387
22.90229486982921,120.2729205991859,21.244438660144805
22.902283352655182,120.27294630917537,21.22981431186199
22.902278898547028,120.272966163797,21.216224947571753
22.902283914600666,120.27298633114276,21.10326488614082
22.90229935595742,120.2730111546754,21.066428753733632
22.90232716780312,120.27304416165639,21.000358605384825
22.902364614847144,120.27308541093805,20.90449168384075
22.902402443379817,120.2731321790484,20.820479366183278
22.902433084610536,120.27318372702342,20.72737484872341
22.902459483292645,120.27324207673566,20.36757110506296
22.90248371806528,120.27328896570533,20.235830855369567
22.90251409326304,120.27331378070488,20.04374100714922
22.90254804313126,120.27330517161141,20.24701504409313
22.902589900512506,120.27328046066361,20.160975576937197
22.902634573867914,120.27324649629786,20.150973178446293
22.902684129037343,120.27321201622429,19.858471532166003
22.902731920045674,120.27317623193537,19.754690530896184
22.902779307679893,120.27314569243426,19.60177592784166
22.902825666828072,120.27312433953455,19.469361592829227
22.902868246779295,120.2731085581617,19.34209159314632
22.90290197407971,120.27309502088325,19.220457729697227
22.90292441433117,120.27308167386643,19.223344919085502
22.902944274193967,120.27307258495576,19.160727164149282
22.902968243894684,120.27306728726292,19.12294413149357
22.902996854013992,120.2730672035871,19.00151457339525
22.903014224699433,120.27307361187214,18.945859104394913
22.903007089599352,120.27309052276507,18.905071437358856
22.902977466195882,120.27312217766793,18.62440604418516
22.902940053923977,120.27315254692135,18.529928888380525
22.90291845720232,120.27317317781977,18.404698272049426
22.902915054426714,120.27317355032713,18.693611729145047
22.902928530983722,120.2731662633943,18.746649153530598
22.902943351334805,120.27315466343339,18.830055895447728
22.902955309887652,120.27314221326826,18.898111598193644
22.902966124891922,120.27313182221086,18.946098887920378
22.902977646521673,120.27312354688976,18.99146813303232
22.902989202224607,120.27311686430528,19.03154990673065
22.902999514168854,120.27311166849215,19.068268594145774
22.903008191735896,120.27310798872139,19.102256685495377
22.903015541322322,120.2731058498165,19.134052470326424
22.90302193301536,120.27310499495788,19.164048655331133
22.903027555702774,120.27310515775854,19.192664861679077
22.90303253231015,120.27310590504875,19.219662529230117
22.903036956757155,120.27310703612031,19.245526118576525
22.903040912566794,120.27310838036352,19.270649559795856
22.903044429968094,120.27310991124827,19.295788905024526
22.903047518833542,120.27311153516936,19.320996759831903
22.90305018125995,120.27311322869963,19.346121424436568
22.903052438128064,120.27311506630953,19.370883966982362
22.90305431206598,120.27311712681359,19.395162048935887
22.903055807966254,120.27311944191348,19.418956893682477
22.90305690861756,120.27312191097066,19.44218531101942
22.903057592440213,120.27312446003185,19.464885225892065
22.90305785611426,120.2731270414153,19.487006479501723
22.90305770697854,120.27312968987384,19.508549071848392
22.903057138393155,120.27313241347514,19.52946773767471
22.903056110343947,120.27313515610777,19.549999813735482
22.90305454804464,120.27313795252462,19.570918479561804
22.903052405714853,120.27314076761078,19.592595644295216
22.903049660377025,120.27314363456769,19.61511572152376
22.903046331514027,120.27314641759018,19.637903720140457
22.903042419562695,120.273149104732,19.6609633103013
22.903037926008274,120.27315168285735,19.68428225815296
22.903032850413926,120.27315414007167,19.7078630104661
22.903027193216488,120.27315646349777,19.73168966323137
22.903020953891755,120.27315864077562,19.755770780146122
22.90301413209026,120.27316065959693,19.780090457201002
22.903006727812,120.27316250661904,19.804651141166687
22.902998740270675,120.27316416979227,19.829447938501833
22.902990168068406,120.27316563592912,19.854467391967773
22.902981011642037,120.27316689241097,19.879715618491172
22.90297127029262,120.27316792610209,19.905174267292022
22.902960944544365,120.27316872365985,19.930850678682326
22.902950034659373,120.27316927200019,19.956728948652742
22.902938541511315,120.27316955783223,19.98280907720327
22.90292646780857,120.27316956755476,20.00908372402191
22.902913815473216,120.27316928704943,20.03554432541132
22.90290058957255,120.27316870318047,20.062182317674157
22.902886794911762,120.27316780095038,20.089001370966432
22.902872439091794,120.2731665663442,20.115980687737462
22.902857531198833,120.27316498431274,20.14312393814325
22.902842082940072,120.27316303996189,20.170417664945123
22.902826108905828,120.27316071829411,20.197858197987077
22.902809624822186,120.2731580032776,20.22543208003044
22.902792652225145,120.27315487877709,20.253138087689873
22.90277521483489,120.27315132870902,20.28096643388271
22.902757339560495,120.27314733688642,20.30890488475561
22.902739058596758,120.27314288696718,20.33695344030857
22.902720407196323,120.2731379630746,20.365096196532246
22.90270142458704,120.27313254979742,20.39333437681198
22.90268215314197,120.27312663291389,20.42165085375309
22.902661440706876,120.27311858369333,20.554583904147147
22.90264094647123,120.27311121665308,20.625112068653106
22.902619117789797,120.27310418902219,20.708118763566016
22.90259663547106,120.2730986774337,20.713442936539646
22.90257380381479,120.27309295800026,20.763777902722357
22.90255393097797,120.2730872822665,20.804788225889205
22.902539649070608,120.27308428731352,20.686743775010108
22.902524870699438,120.2730799207598,20.67288281917572
22.90250719195744,120.27307543634626,20.64173787534237
22.902483703431283,120.27306780110897,20.83831143081188
22.902463346580475,120.27306112431663,20.8957249045372
22.902449117049716,120.27305264740818,20.972548609971998
22.90244218765558,120.27304213233681,20.974513366818424
22.902435276695915,120.27303091957049,21.005956816673276
22.90242231709031,120.27302269868005,21.03368362188339
22.902404439850155,120.27302413471843,20.803205165266988
22.902382213779255,120.27302626012555,20.765520003437995
22.902365083571883,120.2730265719188,20.68618101775646
22.902354175565286,120.27302079588267,20.766298076510427
22.902347080916194,120.27301353641082,20.740621665120123
22.90233532780719,120.27300719476132,20.734791010618206
22.902315485854654,120.2729998155679,20.934217500686643
22.90230101842316,120.27299557990632,20.96892004907131
22.90230034281302,120.27299032133632,21.02741254866123
22.902315805531043,120.27298111655688,20.986018082499502
22.902339802359258,120.27296293845109,20.979737222194668
22.90236717736922,120.27293426352954,20.953512734174726
22.902395861969023,120.27289637229596,20.93427377641201
22.90242061072258,120.27285793049828,20.91283517181873
22.90243521427209,120.27282734150533,20.90611878633499
22.90244134464999,120.27281368393643,20.63358523547649
22.90244200632507,120.27280658232641,20.598885133862492
22.902448711840893,120.27280160598129,20.511933021247383
22.9024627766409,120.27279511623128,20.516061946749684
22.902478981062306,120.27278826233892,20.466007135808464
22.902489590535367,120.27278289366643,20.427687036991117
22.90249216183784,120.27277726602817,20.603661230206487
22.902497050422813,120.2727755865516,20.61174291372299
22.90250751753111,120.27277409014822,20.662117028236388
22.902523962954792,120.27277219134587,20.495893216133116
22.902536138702363,120.2727658774547,20.49517875909805
22.90254177519379,120.27275821482108,20.4682239100337
22.902539564411843,120.27274910479753,20.76470522880554
22.902540348400926,120.27275319604333,20.81934895813465
22.9025448668113,120.27277544719104,20.917887753248213
22.902553777954413,120.27281893759344,20.646947050094603
22.902556776744333,120.27286361791975,20.626587471365927
22.902555121879537,120.27289975708102,20.525352334976194
22.90255080087523,120.272922996979,20.61784026622772
22.902551331499588,120.27294013030067,20.55835437774658
22.902556360134096,120.2729525336632,20.531192776560783
22.90256553495125,120.27296010865184,20.480914086103436
22.902578630849607,120.27296525468873,20.449128088355064
22.902596465716694,120.27297094679047,20.421873509883877
22.90261778849867,120.27297964007691,20.355394750833508
22.902637729132394,120.27298995043215,20.32260802388191
22.90265286334995,120.2730015549699,20.283694583177564
22.90266209264052,120.27301433435645,20.28186195194721
22.902668287888527,120.27303113245769,20.258492845296857
22.902674154199232,120.27305339619814,20.23912053853273
22.902680515575867,120.27307995116857,20.225463888049124
22.90268477171007,120.27310339601542,20.20854202210903
22.902682614353132,120.27311613997679,20.204446128010748
22.902675024594423,120.27311536460502,20.132004588842392
22.902669585028544,120.27309925411419,20.127859759330747
22.902677985598054,120.27306816249748,20.110230776667592
22.902701157418306,120.27302186280104,20.16850551366806
22.902726735198712,120.27297137018597,20.16959310323
22.90273893781168,120.27292822214073,20.18745208233595
22.902734313162856,120.27290058362536,20.191989618539807
22.902723131609722,120.27288514810049,20.219010530412195
22.902716555877795,120.27287505857082,20.246068143844603
22.902717295790154,120.2728660964926,20.21479719132185
22.902717921644705,120.27285662530034,20.222661112248897
22.90271322317064,120.27284913453053,20.22358232140541
22.90270267642719,120.27284461515725,20.300251880288123
22.9026920101218,120.27284367985503,20.334227737784385
22.902684064778807,120.27284357813048,20.380261281132697
22.902678717865786,120.27284318594533,20.432820361852645
22.902673073030797,120.27284972044225,20.473638613522052
22.90266463231609,120.27287117506651,20.510595861077306
22.902654247900795,120.27291138165856,20.41976806372404
22.9026443551878,120.27295664368177,20.400856973230837
22.902641367580873,120.27299457595166,20.346696481108662
22.902647707596245,120.27301748882614,20.36732765138149
22.902662115530713,120.2730272043487,20.318191602826115
22.90267865260253,120.27302683556486,20.27840711176395
22.90269448099574,120.27302054234701,20.25071456134319
22.902710756534006,120.2730152473951,20.219591638445852
22.902728855468293,120.27301545702423,20.19638401865959
22.902747926886285,120.27302272702019,20.148692788183688
22.902765364058123,120.27303421936098,20.119482016563413
22.902780183273432,120.27304735209427,20.087431767582892
22.902792778121203,120.27306102822907,20.034245090186594
22.902802849194227,120.27307574565718,19.998393782973288
22.902810837958693,120.27309310864777,19.9599464520812
22.902816963094565,120.27311300580546,19.946249429881572
22.902822340455035,120.27313334947551,19.919786381721494
22.902827081564265,120.27315125154936,19.898234002292156
22.902831708965156,120.27316588716343,19.856555710732934
22.902836204441655,120.27317837678756,19.83105546683073
22.902841426900174,120.27319092066134,19.80577053874731
22.90284854758468,120.27320616408866,19.697855718433857
22.90285552996699,120.27322164173587,19.64384080916643
22.902862609414196,120.27323743500331,19.580913537740706
22.902868178895023,120.27325139169515,19.662055793404576
22.90287515157958,120.27326689819967,19.66479617655277
22.90288191038936,120.27328289326131,19.68308456391096
22.90288789696094,120.2732986462423,19.69981925189495
22.902892979107826,120.27331416939923,19.71362270861864
22.902897389838195,120.27332914592242,19.73001240193844
22.902901149071752,120.27334340561588,19.747660958766936
22.90290412409781,120.27335687002707,19.76683752387762
22.902906266514965,120.2733695623763,19.787280292809008
22.902907647702175,120.27338144149795,19.808293159306047
22.902908375557868,120.27339251261529,19.829578840732573
22.902908525130425,120.27340276709182,19.850967286527155
22.902908139579207,120.273412165934,19.872442592680454
22.902907268790862,120.27342069295484,19.893983961641787
22.902905981523332,120.27342836527221,19.91551921367645
22.9029043533492,120.27343525601194,19.936987179517743
22.902902448570682,120.27344142806017,19.95830099880695
22.90290031864703,120.27344691999674,19.979445990920066
22.902897996340922,120.273451756852,20.000512686371803
22.902895512929796,120.2734559570884,20.02148885130882
22.902892904583652,120.2734595640436,20.042308422923085
22.902890215510265,120.27346263398418,20.06280991435051
22.902887478384944,120.27346522638304,20.08292114585638
22.902884712515835,120.27346737397615,20.102616426348686
22.90288191755347,120.2734690903647,20.12197282910347
22.90287909140103,120.27347037575558,20.140969556570052
22.902876234058517,120.27347122358088,20.15962618291378
22.902873353214243,120.27347169160693,20.178063823282717
22.90287046048804,120.27347180507091,20.19629593491554
22.902867565315557,120.27347160467302,20.214295603334904
22.90286467197778,120.2734710451104,20.231835278868672
22.90286178152312,120.2734701263313,20.24891618490219
22.90285889386421,120.27346884818061,20.265551778674123
22.902856008826316,120.27346721065832,20.28173471987247
22.90285312806941,120.27346521143723,20.297477242350578
22.90285025106929,120.27346284943131,20.312783016264436
22.902847378874366,120.27346012231335,20.32765693515539
22.902844512533036,120.27345702811817,20.342103892564772
22.90284165291898,120.27345356410484,20.35613245218992
22.90283880195427,120.2734497281013,20.369745060801502
22.902835961036786,120.27344551824581,20.382945388555523
22.90283313173913,120.27344093272829,20.395749339461325
22.90283031624548,120.27343596948015,20.40814712643623
22.90282751805053,120.27343062622587,20.42014608979225
22.90282473925108,120.2734249020346,20.431763356924055
22.90282198303604,120.27341879618233,20.442983023822304
