Latitude,Longitude,Altitude (m)
22.903654462695684,120.27310769923722,24.781812667489053
22.90364522282501,120.27311181497022,24.71287251275778
22.903635597959724,120.2731159120661,24.64389260327816
22.903625598095978,120.27311998480268,24.57482776319981
22.90361523123069,120.27312402662659,24.50566534328461
22.903604504789577,120.27312803187955,24.436383659124377
22.90359342848318,120.27313199410412,24.366961026310925
22.903582010308426,120.27313590693873,24.297357690095904
22.90357025969025,120.27313976491696,24.22757726454735
22.903558184911184,120.27314356126163,24.157569152712824
22.90354579425375,120.2731472893235,24.087340582728388
22.903533099142116,120.2731509436681,24.016844571709637
22.903520105859585,120.27315451719858,23.94606666338444
22.903506824973512,120.27315800332963,23.87499240148068
22.90349326590884,120.27316139573168,23.803592873454097
22.90347943866172,120.27316468762757,23.73183735972643
22.90346535122907,120.27316787236806,23.659727667331698
22.90345101332144,120.27317094317603,23.58721681338549
22.903436435791797,120.27317389263496,23.514293955683712
22.903421627779473,120.27317671358414,23.4409518660903
22.903406599851827,120.2731793992464,23.367150789856915
22.9033913611482,120.27318194297253,23.29287084960938
22.903375921379137,120.2731843364509,23.218110238313677
22.903360291968816,120.27318657316016,23.1428328152895
22.903344481199753,120.2731886453002,23.067042194604877
22.903328500210524,120.27319054571026,22.99070404261351
22.90331235956848,120.27319226722963,22.913805710077288
22.90329606984099,120.27319380180245,22.836356232166292
22.903279640738596,120.27319514252372,22.758324889302255
22.903263082543052,120.27319628159336,22.679713488519194
22.90324640667853,120.27319721197848,22.60052022278309
22.90322962285558,120.27319792690196,22.520745092093946
22.90321274164156,120.27319841843583,22.440388096451763
22.90319577417504,120.27319867967508,22.359461885094646
22.90317872988096,120.27319870409832,22.277979107260705
22.903161620469096,120.27319848352187,22.1959578332901
22.90314445793483,120.27319801257514,22.113437817931178
22.90312724941827,120.27319728435313,22.030433517456057
22.90311000805721,120.27319629195087,21.947008178055288
22.903092744133414,120.27319502974201,21.863192519307137
22.903075467928634,120.2731934917167,21.77906062960625
22.903058190010224,120.27319167186499,21.694693825483323
22.90304092151676,120.27318956443271,21.610171616435053
22.90302367187318,120.27318716456082,21.525593389332297
22.90300645364607,120.2731844670066,21.441096478760244
22.902989275974775,120.27318146716672,21.356792920827868
22.902972150283468,120.27317816069359,21.27284354156256
22.90295508514027,120.27317454311175,21.189436272501947
22.90293809339738,120.27317061045721,21.106753624081612
22.902921183908536,120.27316635991683,21.025012440383435
22.90290436666988,120.27316178778236,20.94448016244173
22.902887652819988,120.27315689111279,20.86540254688263
22.902871051783798,120.27315166786218,20.78809763169289
22.902854574128668,120.2731461159846,20.71287803375721
22.90283822956515,120.27314023330628,20.64010696691275
22.902822027232578,120.27313401867636,20.57015848720074
22.902805977412708,120.27312747174321,20.50344640541077
22.902790089244878,120.27312059180353,20.440388146400455
22.90277437358205,120.27311337831388,20.381449924945834
22.902758837278732,120.27310583274478,20.327094341754915
22.902743491187888,120.2730979560872,20.277802067875864
22.902728343306432,120.27308974894855,20.234057388424876
22.902713403630518,120.27308121468542,20.19633374631405
22.90269867872905,120.27307235582323,20.16510458445549
22.90268417916938,120.27306317575058,20.140803591012958
22.902669912091618,120.27305367939046,20.1238066290617
22.90265588435027,120.27304387125031,20.114462456166745
22.902642105655886,120.27303375769168,20.112989723443988
22.90262858229175,120.27302334603515,20.119509502172473
22.90261532139798,120.27301264372916,20.13398023056984
22.90260233097149,120.27300166122714,20.156130853533746
22.90258961615316,120.2729904086628,20.185397576451305
22.90257718465431,120.2729788978322,20.22081182909012
22.902565042472627,120.2729671432806,20.260843053638936
22.90255319503459,120.27295516057622,20.30320896613598
22.902542196983777,120.27294120080344,20.484093071103096
22.902531994055366,120.27292929715493,20.57350330716372
22.902522315782072,120.2729185087602,20.6726281580925
22.902511972907547,120.27290877683082,20.75562884449959
22.902500638414853,120.2728992045796,20.844961378097537
22.902488540216233,120.27288962261024,20.911893918037418
22.902476277795135,120.27287860491188,21.043617662608625
22.902463351058408,120.27286887796944,21.074371574521066
22.902448818083034,120.27285986834805,21.079608359098437
22.90243247866039,120.27285206480039,21.002039616942408
22.902421235846685,120.27284415358584,20.93156167626381
22.90242517732898,120.2728364422647,20.832630177974703
22.90245046016502,120.27282918561879,20.6916959810257
22.902490982989907,120.27282025487746,20.55727614170313
22.902535066015336,120.27280839810945,20.410053466379644
22.9025756403918,120.2727905244631,20.439302118957045
22.90261230113239,120.27277212865793,20.3682296640873
22.902647601825247,120.27275321841411,20.34092176604271
22.90267939615398,120.27273977106603,19.89014990270138
22.902704907187864,120.27272274922045,19.76599582362175
22.902721467097034,120.27270845014354,19.671224117636683
22.902732274649775,120.2726964578329,19.993006278872492
22.902741522231764,120.27269269773149,20.169000549793246
22.902753016091662,120.27269077925972,20.371283551573754
22.902766421215613,120.27268831609196,20.440662815570832
22.902779462479668,120.2726841922232,20.55234293884039
22.902789743949267,120.27268222300286,20.637127167820932
22.902795893866898,120.27268306403853,20.899660297751428
22.902791274502768,120.27269198469409,21.03914886748791
22.902766989282586,120.27270758037699,21.199024394989017
22.90271776480835,120.27272976236114,21.252234318614008
22.9026564558445,120.27275212680038,21.37532586169243
22.902603756422607,120.27277120613684,21.435839816808702
22.902573561478018,120.27278460550154,21.411385225474838
22.902561287061538,120.27279302760635,21.280859544456007
22.902554015575777,120.27279866023409,21.04376041829586
22.902543478775925,120.27280198441726,20.843880771756176
22.90252853624397,120.27280640358676,20.49388358139992
22.902511470243958,120.2728105899202,20.12047987943888
22.902492757735097,120.27281526126613,19.581911461412908
22.902474493625004,120.27281800865785,19.12875069910288
22.902459660193895,120.27282122498234,18.673582322001458
22.902450440601125,120.27282656015151,18.21375360417366
22.90244379030474,120.27283188493124,17.83151531291008
22.90243353396832,120.27283624743815,17.477645648658278
22.90241762509418,120.27283958739734,17.211525556206706
22.902403813412494,120.27284793573689,16.969881739497186
22.902405215872463,120.27286640207858,16.846128821969035
22.90242829627086,120.27289681580046,16.85180832988024
22.902465486807447,120.2729329064252,17.00382868051529
22.902501274170053,120.27296720970928,17.236424677908424
22.902525522261673,120.27299506858031,17.560763792276383
22.9025367662178,120.27301920527151,17.864166610538962
22.90253861264967,120.27304198580107,18.188653901696206
22.902533574018413,120.2730645155448,18.544151703596118
22.9025236027151,120.27308677282863,18.908684675574303
22.902510564307086,120.27310764041684,19.290178468823434
22.902495973639642,120.27312700808508,19.679541895210743
22.9024810122578,120.27314424396177,20.107546936988832
22.902466658784736,120.27315933151961,20.574643545627595
22.90245337889828,120.27317261444232,21.03754422128201
22.902440301933684,120.2731838791863,21.599184849619867
22.902425813512583,120.2731950950838,22.22168819063902
22.902409417397486,120.27320721144474,22.935453977584842
22.90239257416884,120.27321936731764,23.698512038409714
22.90237737502141,120.27322959209155,24.487931111454966
22.90236490710801,120.27323711624237,25.282426143050195
22.902353771253114,120.27324522169208,26.009648912310602
22.902341923529473,120.27325736950914,26.67409351283312
22.90232898851022,120.27327426643332,27.290593886852268
22.902318746882425,120.27329176179103,27.708849980115893
22.902316435058328,120.27330161433419,27.92734207701683
22.90233640879583,120.2732638290109,30.352034775495532
22.902377169100703,120.27325101780214,30.084207035899166
22.9024333339025,120.27324058741259,30.346396829366686
22.902484348687363,120.27321743992691,30.442068438291553
22.9025316584703,120.27319422275184,30.135029867589477
22.902590901372562,120.27316895364028,30.01569876229763
22.902646773572748,120.2731787091298,28.630368660807612
22.902693580120886,120.27315271550447,29.124203951776032
22.9027314481109,120.27312316816857,29.288880768656732
22.90277681264287,120.27310955633119,29.211740293562414
22.902834753760683,120.2730981379509,29.271952473998073
22.902898592036312,120.27308837638755,29.265927822589877
22.90296466859293,120.27308028653803,29.19046246802807
22.903029430798508,120.27307296276015,29.117617312788965
22.903088344113396,120.27306740423332,29.03934382736683
22.903139383031824,120.2730630661017,29.033431212067608
22.90318395558304,120.27306155518491,28.977517965555194
22.903225144008772,120.27306057604919,28.943630656659607
22.903263050555367,120.27306130212936,28.752079629898073
22.903298750523053,120.27305816172793,28.71118283605576
22.90333332692338,120.2730536136331,28.626956980586055
22.903368496809467,120.27304890068135,28.53604690629244
22.903404499232117,120.27304399368623,28.438620667338373
22.903440647884178,120.27303870886601,28.33808632987738
22.90347648722677,120.27303301003337,28.234836020290853
22.90351184104203,120.27302693324776,28.13433601647616
22.90354651397661,120.27302051111613,28.042464600086216
22.9035802267095,120.27301378721033,27.96407907855511
22.90361269592122,120.2730067370112,27.904801134705547
22.903643426088287,120.27299943835986,27.869639866828923
22.903673626173756,120.27299267526178,27.838459494888784
22.903703275328503,120.27298616873567,27.801458666384224
22.903732211900497,120.2729797099372,27.75318917375803
22.903760461879727,120.27297321475959,27.690927816748623
22.903787894745022,120.2729666947112,27.614978177070622
22.903814977459433,120.2729601851162,27.52884228664637
22.90384099201372,120.27295370723307,27.432194879353048
22.903866063788175,120.27294732231174,27.324484809815885
22.90389040270197,120.27294107830359,27.207755833506585
22.903914023892128,120.27293498921044,27.082447059690956
22.90393702189368,120.27292906267256,26.951028703868392
22.90395948181671,120.27292330479577,26.816634163022044
22.90398145678362,120.27291771733825,26.682122164964678
22.904002987350218,120.27291230343286,26.55008218944073
22.904024074087722,120.2729070640386,26.421692422628404
22.904044730133922,120.27290200561295,26.29804431307316
22.904064966912994,120.27289713560435,26.17890656042099
22.904084855540408,120.2728924708917,26.064781520128253
22.904104415437263,120.27288800006258,25.954389812111856
22.90412365802773,120.27288371742672,25.847321239650253
22.90414259302235,120.27287961953164,25.74312585127354
22.904161226418818,120.27287570190188,25.641375379920007
22.904179568213284,120.27287195878326,25.541612645983697
22.904197623261023,120.27286838598803,25.44347985672951
22.90421539927335,120.27286497776203,25.346604763150218
22.904232902819164,120.27286172806336,25.250701853871348
22.904250137325715,120.27285863056245,25.15550910896063
22.904267111075534,120.27285567896169,25.06080787730217
22.90428382721026,120.27285286657984,24.96644817507267
22.904300294012426,120.27285018644797,24.8722529129386
22.904316512910047,120.27284763172499,24.778135353267196
22.904332489615214,120.27284519473871,24.68401056545973
22.904348229268802,120.27284286951115,24.589811689257623
22.904363734155645,120.27284064811438,24.49549174177647
22.904379007703,120.27283852511388,24.401032652676108
22.90439405333811,120.27283649283746,24.306400088310244
22.90440887163219,120.2728345466178,24.211592241644862
22.904423467154906,120.27283267891059,24.11661453378201
22.904437839335053,120.2728308845051,24.02145973658562
22.904451988458234,120.27282915882995,23.926144113361836
22.904465917094885,120.27282749574736,23.830669471144677
22.90447962353138,120.27282589209256,23.735075564682486
22.904493108910142,120.27282434230315,23.639351551771167
22.904506371231935,120.27282284276683,23.543524537920955
22.90451941192478,120.27282138929581,23.44761078643799
22.90453222870385,120.27281997891713,23.351631981730463
22.904544819284304,120.27281860852992,23.25560619413853
22.904557184522954,120.27281727461774,23.159546072900298
22.904569321849365,120.27281597503877,23.06348775869608
22.904581230977932,120.27281470650034,22.967422216355803
22.90459290705338,120.27281346765982,22.87139100766182
22.904604352360547,120.272812254777,22.775383290410044
22.904615562615366,120.2728110685871,22.67944062638283
22.90462653753223,120.27280990560571,22.583570243716242
22.904637274540704,120.27280876464998,22.487773949444296
22.904647772212765,120.27280764354614,22.392080656111244
22.90465802769237,120.27280654239009,22.296497591853143
22.904668042693142,120.27280545878425,22.201031984806065
22.904677812074212,120.27280439189745,22.105705519378187
22.904687335549966,120.2728033411543,22.010527230739594
22.90469661169239,120.27280230636299,21.915498925924304
22.904705640787082,120.27280128547758,21.820640482306484
22.9047144196924,120.27280027872186,21.72595732098818
22.904722947551527,120.27279928510482,21.63145667010546
22.904731222650838,120.27279830363547,21.537143950760367
22.904739246703958,120.27279733536874,21.443030005156995
22.90474701542683,120.27279637908985,21.349127482533458
22.90475452996186,120.272795434639,21.25543276882172
22.904761788881032,120.27279450108908,21.16195851325989
22.90476879075632,120.27279357933521,21.068706522881985
22.90477553644455,120.27279266883394,20.975691253960136
22.90478202623131,120.27279176936149,20.88290186429024
22.904788257546173,120.27279088088589,20.79035461717844
22.904794229532317,120.27279000350306,20.69805131965876
22.904799943903377,120.27278913743676,20.60599197173119
22.904805400659345,120.2727882822714,20.514187415599825
22.904810598657807,120.27278743896603,20.422632230162623
22.90481553704195,120.27278660681736,20.331340871691705
22.904820218096614,120.27278578617701,20.24029888391495
22.904824638394537,120.2727849777483,20.149526144206526
22.904828801362974,120.27278418127547,20.05900819629431
22.904832706716327,120.27278339682246,19.96875768941641
22.904836353026568,120.27278262538026,19.878776430606845
22.90483974229293,120.27278186627755,19.789049963593484
22.904842873658595,120.27278112021763,19.699605393886568
22.9048457491228,120.27278038691279,19.61041561597586
22.904848366971915,120.27277966818517,19.521496893167498
22.90485073034759,120.27277896339541,19.4328510324955
22.904852837536197,120.27277827270338,19.34447261285782
22.904854691393783,120.27277759671645,19.25636886239052
22.904856290777925,120.27277693514691,19.168510868549347
22.904857636259834,120.27277628924148,19.08093838608265
22.90485873098116,120.27277565877641,18.99362973058224
22.90485957379948,120.2727750450304,18.906588516116145
22.904860165571613,120.27277444659687,18.819803900480274
22.904860508867998,120.27277386529798,18.733283111810685
22.904860602831814,120.27277330113371,18.647018921971323
22.904860449462298,120.27277275416802,18.561027594268324
22.904860048759453,120.27277222484845,18.475289251327517
22.904859403864915,120.27277171384631,18.389796665012838
22.9048585150643,120.27277122055423,18.304569712698463
22.90485738350002,120.27277074666648,18.2195867099762
22.90485600831526,120.27277029122403,18.134856692016125
22.904854394936507,120.27276985560151,18.050372430682184
22.904852541650133,120.27276943896774,17.96612669783831
22.90485045074097,120.27276904285718,17.882126721620562
22.90484812335144,120.27276866717389,17.798368887960912
22.904845561195163,120.27276831182202,17.714835126519205
22.904842765128958,120.27276797750483,17.631548928737644
22.904839738865675,120.27276766470183,17.548484996140004
22.904836480120487,120.27276737277369,17.46564874982834
22.90483299517668,120.27276710290317,17.3830347687006
22.90482928174943,120.27276685525015,17.300641245722773
22.90482534355158,120.272766629431,17.218457338690758
22.904821180868744,120.27276642659656,17.136493889808655
22.904816796842567,120.272766246587,17.054736442804337
22.904812192329864,120.27276608969,16.97318680471182
22.904807371329092,120.27276595564983,16.89183232629299
22.904802332126625,120.2727658454575,16.81068023568392
22.904797079863343,120.27276575895317,16.72972149771452
22.904791613968037,120.2727656966483,16.64895069128275
22.904785938153562,120.27276565819129,16.56836781638861
22.904780052705522,120.27276564470095,16.487963837862015
22.90477396247919,120.27276565518633,16.407738755702972
22.904767667188963,120.27276569105398,16.327685341775418
22.90476116997649,120.27276575236785,16.247801789045337
22.904754473412204,120.27276583794512,16.16808990454674
22.904747577210507,120.27276594880877,16.088522582769397
22.904740485941065,120.27276608665308,16.00911789405346
22.904733201603108,120.27276624917637,15.929868610262872
22.90472572676708,120.27276643768933,15.850762082159521
22.904718062860994,120.27276665295916,15.771794695675375
22.904710211598477,120.27276689434653,15.692966450810435
22.904702178120413,120.27276716181947,15.614275540530683
22.904693962426798,120.27276745617716,15.535709315598012
22.904685568516093,120.27276777754747,15.457267776012422
22.904676998101923,120.27276812577057,15.378940079569817
22.904668253469126,120.27276850107023,15.3007262262702
22.904659338616156,120.27276890383007,15.222628023147584
22.904650254114227,120.27276933420991,15.14462468931079
22.904641005104214,120.27276979233763,15.066727066963912
22.904631591871723,120.27277027757387,14.988925217419864
22.904622018986423,120.27277079122932,14.911208298474552
22.904612288733144,120.2727713330802,14.83357450309396
22.904602403396726,120.27277190309452,14.756023831278087
22.904592366975628,120.27277250152805,14.678549054890873
22.904582180897872,120.2727731288603,14.601137524694206
22.904571850018726,120.27277378480355,14.523799179375173
22.904561374909406,120.27277446929386,14.446516852110626
22.904550761281996,120.27277518373783,14.369291446417572
22.904540009136493,120.27277592698461,14.292107602506878
22.904529123613777,120.27277670005715,14.21497074148059
22.90451810728429,120.27277750247596,14.13788086333871
22.904506964146485,120.27277833472053,14.060818090707064
22.90449569591399,120.27277919701466,13.983793265789748
22.904484307442083,120.27278008932636,13.906795546382668
22.90447279930197,120.27278101216713,13.829802344560624
22.904461177205736,120.27278196550499,13.752838055282833
22.904449444009426,120.27278294962765,13.67587828359008
22.904437603425894,120.2727839640556,13.598931161135436
22.904425657168765,120.27278501032329,13.52197681054473
22.904413610093318,120.27278608712004,13.445022459954025
22.90440146391317,120.27278719566061,13.368056363642218
22.904389223769208,120.27278833578518,13.2910776180923
22.904376892803075,120.27278950794128,13.214081705719234
22.904364473014,120.27279071168137,13.13706410893798
22.904351970685276,120.27279194767678,13.060013985544444
22.904339387530538,120.2727932156398,12.982941274225713
22.904326726691423,120.27279451632164,12.905826097607614
22.904313992452,120.27279584951455,12.82867116624117
22.90430118738271,120.27279721539432,12.751470155507327
22.904288316910034,120.2727986144245,12.674216740787031
22.9042753833188,120.27280004596574,12.596914536148311
22.904262389750667,120.27280151081722,12.51955902400613
22.904249341632106,120.27280300936255,12.442135748088361
22.90423624067675,120.27280454083451,12.364645611912014
22.904223090883054,120.27280610609624,12.287088615477087
22.9042098973919,120.27280770501984,12.209450302511454
22.904196662202516,120.27280933736557,12.13174693632126
