Latitude,Longitude,Altitude (m)
22.903751351053103,120.27313359307364,9.822070786505938
22.903756590464617,120.2731333430996,9.749029505968092
22.903761780583356,120.27313309757199,9.675848596423863
22.903766919697762,120.2731328559426,9.602529282689094
22.90377200763668,120.27313261863782,9.529069115132092
22.903777042175086,120.2731323854749,9.455471155792473
22.90378202279952,120.27313215596658,9.381739691525697
22.903786948654197,120.27313193090467,9.307872885107994
22.90379181802757,120.27313170943644,9.233878085434435
22.90379663023501,120.27313149204917,9.159748556017876
22.90380138390728,120.27313127807287,9.085503281503915
22.903806077332817,120.27313106775114,9.011130626142025
22.903810710169317,120.27313086120583,8.936636101603508
22.903815281389843,120.27313065855874,8.862020320296287
22.903819789282842,120.27313045901806,8.787291855931281
22.903824233163693,120.27313026234016,8.7124482588768
22.90382861132084,120.2731300696823,8.637493815988302
22.903832923240817,120.27312988013082,8.562431589305401
22.90383716635629,120.2731296938685,8.487264640867709
22.90384134152304,120.27312951040803,8.411996032714843
22.903845446516044,120.27312932999304,8.336625152438879
22.903849479966055,120.27312915274537,8.26116179856658
22.90385344135961,120.27312897817772,8.185603521466255
22.903857328642847,120.27312880659467,8.109957057625055
22.903861141473445,120.27312863781347,8.034221182227133
22.903864878653323,120.27312847146865,7.958403856575488
22.90386853915555,120.27312830774298,7.882506305485963
22.903872120412785,120.27312814700187,7.8065334282219405
22.903875622767348,120.27312798839262,7.73048522478342
22.903879045021146,120.27312783246339,7.654370268881321
22.90388238460685,120.27312767811783,7.578189172923564
22.90388564169561,120.27312752681775,7.501946836173534
22.903888814918187,120.27312737746679,7.425642646223306
22.903891902734177,120.27312723012585,7.349288238823413
22.9038949039455,120.27312708491677,7.2728830015659325
22.903897817525213,120.27312694159588,7.196433058530092
22.903900643131013,120.27312679998047,7.119940246939659
22.90390337870903,120.27312666061873,7.043410078465938
22.90390602323233,120.27312652302338,6.966846839964389
22.903908574989366,120.27312638682895,6.890254205882549
22.90391103398013,120.27312625221816,6.813635850667953
22.903913398150756,120.2731261194956,6.73700034803152
22.903915667158937,120.27312598805213,6.660348922789097
22.903917838950807,120.27312585794868,6.583686474204063
22.90391991335521,120.27312572930708,6.507016676723957
22.903921887633658,120.27312560176185,6.430349941283464
22.903923762813083,120.27312547586118,6.3536844306588165
22.903925536155,120.27312535069143,6.2770293309688565
22.903927207488252,120.27312522649625,6.200388316661119
22.903928774245504,120.27312510370199,6.123763224959373
22.903930236940223,120.27312498163863,6.047166304022073
22.903931593689705,120.27312486006257,5.970599391072988
22.9039328431247,120.27312473933924,5.894067997783422
22.9039339849029,120.27312461965138,5.817576411008835
22.903935017141592,120.27312450045079,5.741131979644298
22.903935938813845,120.27312438155477,5.664741440176964
22.903936748892725,120.27312426332874,5.588409691870212
22.9039374463513,120.27312414546817,5.51213795953989
22.903938030676105,120.27312402809488,5.435939716160297
22.903938499984427,120.2731239101125,5.3598174113631245
22.903938853249336,120.27312379310467,5.2837771692276
22.903939089615054,120.27312367621867,5.207823889017105
22.903939207370023,120.27312355878448,5.131968594074249
22.903939206171934,120.27312344171574,5.056214652642607
22.903939084651544,120.27312332391608,4.980570026025176
22.90393884178192,120.27312320648188,4.905037470057606
22.903938476707282,120.27312308831677,4.829629845306277
22.903937987887236,120.27312297002983,4.754351132422685
22.903937374294845,120.27312285101198,4.679206843078136
22.903936635416642,120.27312273168958,4.604205550983548
22.90393577005454,120.27312261133171,4.529355829849839
22.903934776325833,120.27312249024293,4.454664722368121
22.903933654230514,120.27312236842322,4.380136821597814
22.903932402741653,120.27312224575077,4.305782844677567
22.90393101877845,120.27312212210377,4.231612283930183
22.90392950456593,120.27312199699493,4.157629426211119
22.903927857194446,120.27312187085063,4.083844376251101
22.903926075808226,120.27312174379267,4.010262645721435
22.903924159551483,120.27312161496833,3.9368983200043437
22.90392210671267,120.27312148468216,3.863754767343402
22.9039199176341,120.2731213532387,3.7908433172851796
22.90391759094652,120.27312121978521,3.71817101252079
22.903915125280694,120.27312108474807,3.6457482639849186
22.90391251978084,120.27312094776181,3.573583951592445
22.903909773248873,120.27312080907006,3.5016900172978636
22.903906885855946,120.2731206683683,3.430071972772479
22.903903855034727,120.27312052553471,3.358741759970784
22.90390068146984,120.27312038069108,3.287709177419543
22.90389736344973,120.27312023328923,3.216986473277211
22.90389389994746,120.27312008369464,3.1465834460705517
22.903890290620723,120.27311993190727,3.0765059136748314
22.90388653392912,120.27311977725716,3.0067719421237706
22.903882629701496,120.27311962023157,2.9373907175362106
22.903878576397446,120.27311946003864,2.868370507419109
22.90387437384582,120.27311929795754,2.79972570335865
22.903870021361996,120.27311913246545,2.7314694721251724
22.903865517919037,120.27311896417153,2.6636134494692087
22.903860862147706,120.27311879301485,2.5961692711412905
22.903856054047996,120.27311861869084,2.529149338401854
22.903851093106443,120.27311844119954,2.4625697269588707
22.903845977440337,120.27311826048,2.3964423787668347
22.903840708247767,120.27311807677589,2.330783522635698
22.90383528261909,120.27311788959992,2.2656018853783606
22.903829701923552,120.2731176991348,2.2009205853939053
22.903823964791904,120.27311750513692,2.136749421209097
22.903818069854903,120.27311730791081,2.073103856123984
22.903812018139483,120.27311710709102,2.010002721682191
22.90380580793409,120.27311690279939,1.9474617873877285
22.903799439067573,120.27311669454859,1.8854968227446078
22.903792911197613,120.27311648355686,1.824126659296453
22.903786224153055,120.27311626854508,1.76336829136312
22.903779376735816,120.27311605000054,1.7032423877120018
22.903772369972828,120.27311582816685,1.6437650240510702
22.903765201981376,120.27311560267857,1.5849614622071384
22.903757873446086,120.27311537371844,1.5268459406644106
22.903750383340025,120.27311514159099,1.4694435681477187
22.903742732690123,120.27311490568712,1.4127747072204946
22.90373492081176,120.27311466655505,1.3568635479956865
22.903726947362628,120.27311442480384,1.3017307592406868
22.903718812342724,120.27311417945894,1.2474043586179613
22.903710516436668,120.27311393167767,1.1939056273028255
22.903702058788685,120.27311368072907,1.141260439530015
22.90369344025455,120.27311342710044,1.0894983439818025
22.903684659978488,120.27311317140088,1.038645061790943
22.90367572018552,120.27311291320402,0.9887299885377288
22.903666619164095,120.27311265324076,0.9397834384143352
22.903657358796917,120.27311239151113,0.8918343476951122
22.90364793891283,120.27311212825875,0.844919154651463
22.903638358656064,120.27311186409271,0.799066948659718
22.903628621620875,120.2731115993785,0.7543155459091067
22.903618726438026,120.27311133399427,0.7106983226314186
22.9036086743056,120.27311106879276,0.6682584535852074
22.903598465565917,120.27311080420036,0.627028970522806
22.90358810227283,120.27311054052161,0.5870553447324782
22.903577585110973,120.27311027879198,0.5483788754735142
22.903566914936114,120.27311001922463,0.5110463354010134
22.903556092775194,120.27310976224597,0.4751041909661144
22.90354511999745,120.27310950886097,0.44059959757886824
22.903533999170214,120.27310925964831,0.4075877485033124
22.903522730122337,120.27310901579571,0.3761214639227837
22.90351131542115,120.27310877788183,0.34625861638598143
22.903499756607044,120.27310854642438,0.31806006393022834
22.903488055391584,120.27310832309841,0.29158612873591483
22.90347621417094,120.27310810842164,0.2669090749379247
22.90346423465667,120.27310790379498,0.24409672671370206
22.903452119073794,120.27310771004075,0.22322479299269615
22.903439869305025,120.27310752889484,0.2043730399068445
22.90342748826,120.27310736117956,0.18762812317721544
22.903414977821434,120.27310720829583,0.17307922470755874
22.903402341412438,120.27310707207094,0.16082096152193842
22.903389580744562,120.27310695390582,0.1509582850281149
22.903376698727453,120.27310685483596,0.14360012728534638
22.903363698270752,120.27310677729771,0.1388650657776743
22.90335058245526,120.27310672247884,0.1368799454960972
22.90333735401946,120.27310669275484,0.13777980238758028
22.903324015701845,120.27310668955707,0.14171161435358226
22.903310570925523,120.27310671501739,0.1488365977797657
22.903297021915513,120.27310677087172,0.15932546137459574
22.903283372094926,120.2731068597392,0.17336697988025843
22.90326962488687,120.27310698317301,0.19116286515630782
22.9032557820029,120.27310714415775,0.21293756470642983
22.90324184720844,120.27310734436844,0.23893336241506039
22.903227821958314,120.27310758618056,0.2694197943191975
22.903213710360244,120.2731078720305,0.3046876776311546
22.903199512842125,120.27310820429375,0.3450664112623781
22.903185232827067,120.2731085854676,0.3909124166239053
22.903170871341995,120.27310901780574,0.44262574919126924
22.903156429841744,120.27310950398818,0.5006536964010447
22.90314190995228,120.27311004599451,0.5654894762840121
22.903127311416874,120.27311064662658,0.6376928296815604
22.903112634492256,120.27311130798576,0.7178899819701909
22.903097879520743,120.27311203256936,0.8067878815457225
22.903083044020576,120.27311282244834,0.9051860652267932
22.903068127392714,120.27311367993724,1.0139940353296697
22.903053126984243,120.27311460661974,1.1342450005710125
22.90303803928648,120.27311560499315,1.2671212909966707
22.903022860790735,120.27311667670202,1.4139790074005723
22.90300758567772,120.27311782320817,1.5763695321530102
22.90299220898393,120.27311904591257,1.7560781874507665
22.902976723007367,120.27312034554609,1.955161745302379
22.902961120645077,120.27312172314423,2.175978588618338
22.90294539265467,120.2731231794379,2.42123663213104
22.902929529280275,120.27312471400074,2.6940213400572537
22.902913519567946,120.27312632610182,2.9978225189447403
22.902897351536797,120.27312801537568,3.3365251315534112
22.90288101294922,120.27312977926411,3.714351730510592
22.90286448994161,120.27313161496525,4.135734618157148
22.90284776668209,120.27313351912908,4.6050267900079485
22.902830829563797,120.27313548645643,5.126055489376187
22.902813661556767,120.27313751061266,5.701390379905701
22.902796246486805,120.27313958294857,6.331345014452934
22.902778567751824,120.27314169371861,7.012721092641353
22.902760608065126,120.27314383025353,7.73751566773653
22.902742351594828,120.2731459776913,8.491983856320381
22.90272378165327,120.27314811769809,9.256606993079185
22.902726122889064,120.27309996733251,15.212337732195854
22.902687839088305,120.27306887824312,20.139490170955657
22.902639471491362,120.27306785587123,19.274778757750987
22.902597468396472,120.27305139431348,19.217746432721615
22.902530328552196,120.27303522180343,19.4227548841238
22.902459741893306,120.27302335875683,19.870494890153406
22.90238794987196,120.2730207670426,19.64312742549181
22.902330722112136,120.27300991235862,20.404592987000942
22.902279324592538,120.27299638854397,21.291365783214566
22.902220605640604,120.27303066059955,19.665226777791975
22.902217865612545,120.27307360414724,20.31773027205467
22.902238152671444,120.27311932579333,20.692242213129997
22.902289931482656,120.2732070666192,19.34753036934137
22.902423685296007,120.27328413067876,19.530294940173626
22.902591560109347,120.27328505072208,19.484528471291064
22.902746116501895,120.27321202784853,19.54134277909994
22.902826905567714,120.27314064680007,19.598340809285638
22.902875033803724,120.2731091035059,19.686833754122254
22.902898715645964,120.27310452530817,19.43723710668087
22.902852157419165,120.2730953432392,19.473055621266365
22.902754020290747,120.27307167129489,19.501953926324845
22.90266809288072,120.27304560882155,19.26602622371912
22.90262623475452,120.27299925669757,19.32415108448267
22.90259022586681,120.27292141305281,19.34518729662895
22.902549332886355,120.27281887981235,20.076747754454612
22.90249922587907,120.27273579185969,20.163748873591423
22.902472717489673,120.2726780734318,20.257882095396518
22.90246369472909,120.27263719802487,19.999374912679194
22.902473040460062,120.27260853347502,19.938257826805113
22.902507612198008,120.27261652975858,19.824155207455156
22.90257444105278,120.27268457332018,19.621133407354353
22.902653098291538,120.27277104663483,19.488460130155087
22.902712999285995,120.272815516888,19.34679425501823
22.902749611582347,120.27282504215353,19.709746384143827
22.902769297885516,120.27284164328621,19.696181548655034
22.902792569211343,120.27285901322307,19.734826938211917
22.90279716944272,120.27285878246609,19.318046602308748
22.902789786993456,120.27284844441948,19.323595018088817
22.902778935650524,120.27285975428279,19.34213750517368
22.90277365002703,120.27289897888805,19.028387453377245
22.90277402785275,120.27293497508839,18.978265539348126
22.90275869916807,120.2729679964515,18.891969914138315
22.902752359740294,120.27300917927808,19.52460199612379
22.902752410402314,120.27307351564522,19.528021681964397
22.902776888374266,120.27314994785642,19.497204090476036
22.90281794070047,120.27322721304033,19.30308057749271
22.90285985941571,120.27328709869407,19.203232364952562
22.902892470182543,120.27332955816071,19.09818480914831
22.902911727056615,120.273356526729,18.65852736288309
22.902924085166806,120.27335456731996,18.51506100845337
22.902916970404707,120.27332854809262,18.391105970442293
22.90288455800707,120.2733046895205,17.313451748788356
22.90286015791086,120.27328581660258,16.976637189805505
22.902840751789213,120.27328402621836,16.587308651447294
22.902849006617956,120.2732808755953,17.42316952741146
22.902854706865597,120.27328255914364,17.437035667598245
22.902867393166417,120.27328220306464,17.524775350689886
22.90287923293224,120.27328107665873,17.580255834043026
22.902888609086098,120.27328259465408,17.6235751208663
22.902895436135836,120.2732850767915,17.648272307574747
22.902898341500087,120.27328666672139,17.671391931474208
22.90289777009752,120.27328833906232,17.69069012993574
22.902895644260898,120.27329158251199,17.709143205463885
22.90289342206374,120.27329621915271,17.72608118379116
22.902891419287904,120.27330126053943,17.741897230803964
22.90288955968363,120.27330635570952,17.755580873429775
22.902887769910787,120.27331167983976,17.767560797214507
22.90288599323134,120.27331720594708,17.77816402798891
22.902883960160985,120.27332257886613,17.786926360547543
22.902881272677657,120.27332763962217,17.79475293380022
22.90287783176791,120.27333241184823,17.801880137205124
22.902873939692324,120.2733367704964,17.80948501878977
22.902870268920772,120.27334025319996,17.81672123080492
22.90286731084063,120.27334244400555,17.823538555800912
22.902865256033532,120.27334352107448,17.829636913895605
22.90286403252859,120.27334395091532,17.83493056797981
22.902863530871883,120.27334394719982,17.839043499588964
22.902863642122945,120.27334348087398,17.84143189048767
22.902864176898238,120.27334253512669,17.842013678014276
22.90286494992196,120.2733412735009,17.84111098873615
22.902865805613775,120.27333986526511,17.83748920828104
22.90286655227955,120.2733382814262,17.83297086262703
22.902867136433198,120.27333650937585,17.82788175278902
22.902867558759343,120.2733345265165,17.823893752396106
22.90286790226839,120.27333241958378,17.819741626679896
22.90286816499205,120.27333019338957,17.815432724535466
22.902868345389923,120.27332785244118,17.810992767095566
22.902868443633167,120.27332539966233,17.806431552886963
22.90286845980736,120.27332283633207,17.80176745414734
22.902868395624058,120.27332016287681,17.797018843114376
22.902868252538077,120.2733173791138,17.792185719788073
22.90286803208982,120.27331448504304,17.78729870456457
22.902867736333153,120.27331148017727,17.78235657262802
22.90286736809214,120.27330836378556,17.777372796952722
22.902866928821602,120.2733051345888,17.772370649039743
22.902866421345607,120.27330179240425,17.767339105546473
22.90286584746129,120.2732983375974,17.762295313894747
22.90286520956482,120.27329476937639,17.757250297427177
22.902864509453334,120.27329108816761,17.75221507948637
22.902863750036474,120.27328729464107,17.7471835359931
22.90286293217002,120.27328338879674,17.7421728143692
22.9028620584213,120.27327937185285,17.73718781387806
22.902861130416294,120.27327524581942,17.732213836729525
22.902860149780977,120.27327101118371,17.727285177767275
22.902859118226907,120.27326666934667,17.722378565490246
22.90285803695217,120.27326222378015,17.717501348793505
22.902856908010634,120.27325767570234,17.712673124730586
22.902855732514805,120.2732530279151,17.707871846616268
22.90285451140604,120.27324828255028,17.703117111504078
22.902853246139163,120.27324344362792,17.698392996788023
22.902851938596886,120.27323851480263,17.693708076179025
22.90285058989171,120.2732334992417,17.68906602412462
22.90284920062269,120.27322840096518,17.68445826691389
22.902847772415797,120.27322322478497,17.67988480454683
22.902846306041234,120.27321797539112,17.675348086655138
22.902844803467286,120.27321265723005,17.67084811323881
22.90284326520742,120.27320727669728,17.666375085771083
22.902841692802035,120.27320183903106,17.661929004251956
22.90284008762038,120.27319635056604,17.657513543128967
22.902838450603802,120.27319081842865,17.65311645424366
22.90283678320713,120.2731852481617,17.64875488501787
22.902835086286135,120.2731796485971,17.644401889503
22.902833362579308,120.27317402643493,17.640077064752578
22.902831612428958,120.27316839014169,17.635759588897226
22.902829837204333,120.27316274727019,17.631456810832024
22.90282803913045,120.27315710732236,17.62717607945204
22.902826219576557,120.27315147882558,17.622897797703743
22.902824380425358,120.27314587018542,17.618636663377284
22.902822523816305,120.27314029169563,17.614376753866672
22.90282065188883,120.27313475200542,17.610129092514512
22.9028187655843,120.27312926073853,17.605894904136658
22.902816868496974,120.27312382800602,17.601670514285562
22.902814962766296,120.27311846257889,17.597454698145388
22.902813051387486,120.2731131739591,17.59325113016367
22.90281113641441,120.27310797222721,17.589068384051323
22.90280922169807,120.27310286615423,17.584904010176658
22.902807310148106,120.27309786420666,17.580758008539675
22.902805405615517,120.27309297561231,17.57664262729883
22.902803511608987,120.27308820911178,17.57255664163828
22.90280163274972,120.27308357207512,17.568518423795698
22.90279977288871,120.27307907199429,17.564514500796793
22.90281424630946,120.27304830118933,19.492639201819895
22.902807739491625,120.27301607372524,20.02115458804369
22.90280746059377,120.27297611497352,20.712500667214393
22.902795287588233,120.27294128985648,19.676097018420695
22.902800971148217,120.27289758673246,19.85953156352043
22.902805460556426,120.27286047350634,19.80536040830612
22.90281225063658,120.27284296365956,19.573715886712073
22.902825213439073,120.27282867076664,19.570369689822197
22.902830208954033,120.27280855394771,19.574788825392723
22.902829106113707,120.27278962142948,19.609098366856575
22.90282969685684,120.27278034763029,19.625672574877736
22.90283323258672,120.27277843119313,19.637672095716
22.902834653177194,120.27277610011215,19.719495918273925
22.90282969942417,120.2727711455829,19.732064978480338
22.902822079411102,120.27276424251698,19.74293154466152
22.90281410356579,120.27275705960076,19.679678379952907
22.902807473344854,120.2727484647637,19.659253350913524
22.902800154223115,120.27273751320259,19.632309851944445
22.90279230914059,120.2727240560157,19.6434017842412
22.902785523339325,120.272712446849,19.626999050438403
