Latitude,Longitude,Altitude (m)
-11.018822573739552,15.883978073698108,11525.001621265412
-11.007986564407116,15.882493912563305,11525.165750055314
-10.997140135834936,15.881009751428504,11525.331939039232
-10.986289539566858,15.879523127141548,11525.498814754486
-10.97543373367891,15.878033815779514,11525.66706393242
-10.964571676247115,15.876538010652707,11525.838060035707
-10.953708576891348,15.875031457225587,11526.009742870332
-10.942839225991733,15.873513931575232,11526.18485936165
-10.931968833168144,15.871982074857796,11526.359975852967
-10.92109427264866,15.870432528229426,11526.539212732316
-10.9102186702052,15.868862604615048,11526.719823074342
-10.899339941989817,15.867269169093738,11526.901120147706
-10.888457046078537,15.865649982436262,11527.086537609102
-10.877579359787129,15.864003477182159,11527.274015264513
-10.866699589647773,15.862324503104196,11527.4628663826
-10.855817735660468,15.860611940587756,11527.65515115738
-10.844942133217007,15.858862206866068,11527.850182857515
-10.834065488849573,15.857074630170365,11528.047274751665
-10.82318884448214,15.85524316458172,11528.247113571168
-10.812317409734577,15.853367586177209,11528.449012584688
-10.801448058834962,15.851444536112984,11528.6543452549
-10.790580791783297,15.849469535930584,11528.863798313141
-10.779719776275478,15.847443929167547,11529.073938102723
-10.768860844615606,15.845360326367405,11529.289571743013
-10.758010248347528,15.843219399298933,11529.507265577318
-10.747163819775349,15.84101711734951,11529.727706336977
-10.736325726594963,15.838751017366983,11529.95089402199
-10.725493884958423,15.83641751658458,11530.17888882637
-10.714666211017779,15.83401504754184,11530.408943824768
-10.703849998240853,15.831539579626144,11530.643805942536
-10.693040037007773,15.828988201839492,11530.881414985657
-10.682238411166486,15.82636069025896,11531.12314441681
-10.671448246488916,15.823652118580238,11531.368307504656
-10.660667459127115,15.82086114326579,11531.617590980532
-10.649896049081084,15.817983509780072,11531.870308113099
-10.639137142122742,15.815016754970932,11532.127832365037
-10.628389696328117,15.811959535300828,11532.38810354233
-10.617654753621185,15.808807820157144,11532.65318183899
-10.606916685142329,15.80557347745481,11533.16204976082
-10.596185910131293,15.802250461274898,11533.865949382784
-10.585471805903847,15.798833397467252,11534.6831596756
-10.574781665927807,15.79531847934218,11535.555308475496
-10.564112364431253,15.791706154745526,11536.449432678224
-10.553481614121749,15.787995975831446,11537.352484388353
-10.542880037683522,15.784191301443785,11538.25553609848
-10.53232326397619,15.780290564122083,11539.155840883257
-10.5218133768477,15.77629734663311,11540.059579324723
-10.511360795537795,15.772208737978863,11540.964691228868
-10.501450014694512,15.767606674061778,11534.253265857698
-10.49177366674544,15.762614760335444,11521.404522514344
-10.48211503150393,15.757446619268574,11504.903055181505
-10.472387629280119,15.752254742371846,11486.505522623063
-10.462595627769904,15.747103171601289,11467.214552593232
-10.45277236854046,15.741996609338292,11447.53901301384
-10.44295015123499,15.736912439367611,11427.726127166748
-10.433152940104902,15.731815729713233,11407.88508533478
-10.42340053170571,15.726678713932683,11388.060525054932
-10.413713764516894,15.721474073429334,11368.268241147996
-10.404112435093971,15.7161632934604,11348.514414196015
-10.394600711132833,15.710742567336188,11328.796984004975
-10.385180676481433,15.705215253900546,11309.11389038086
-10.375842953824,15.699580905307625,11289.46582005501
-10.366596920476303,15.693842880401274,11269.850712833406
-10.357437366818472,15.687999835643955,11250.267195253373
-10.348362209002554,15.682054010264897,11230.71664077759
-10.339373530876504,15.676007419570412,11211.19561574936
-10.330466122820445,15.669859167868806,11191.70343343735
-10.321642068682328,15.663611046543464,11172.240780572893
-10.312903452310103,15.657265966592387,11152.805596961976
-10.304248189855818,15.650822584478036,11133.396509141923
-10.29567002977563,15.644283811198413,11114.01489057541
-10.287175223613383,15.637648751061825,11094.655934143067
-10.278760645597156,15.630920315066271,11075.323073501588
-10.270421086107076,15.624099398903448,11056.012188262941
-10.262161754763016,15.617185330804585,11036.722591695787
-10.253979525793051,15.610180349998911,11017.455657262803
-10.245875441121157,15.603086695715662,10998.208638038637
-10.237847416899385,15.595903696186065,10978.981534023285
-10.229895453127735,15.588632918870584,10959.772285022736
-10.222015382110309,15.581276379075527,10940.580891036989
-10.214211371543007,15.573834076800894,10921.406665334702
-10.206480295653902,15.566308475198841,10902.248234453202
-10.198820070595048,15.558698902500597,10883.104911661148
-10.191228612518495,15.55100737401247,10863.974636764528
-10.183711131044118,15.543235009349077,10844.858783226015
-10.17626241655204,15.535382928125035,10825.755290851594
-10.168882469042266,15.527451802109113,10806.662099447252
-10.16157233043877,15.519442974838848,10787.579895744324
-10.15432783304565,15.51135846162055,10768.508679742814
-10.147151060710858,15.50319759068545,10749.445017786027
-10.140040971510421,15.494963273031548,10730.390283336641
-10.132995481596389,15.48665595650469,10711.34241620064
-10.126012507120812,15.478275417181957,10692.301416378023
-10.119093090007667,15.469824342138422,10673.264536943438
-10.112240356028874,15.461303403142855,10654.233838090897
-10.105449095564563,15.4527139437328,10635.206572895051
-10.098714098994863,15.44405663567702,10616.182054624558
-10.092038492091698,15.435333270358905,10597.16028327942
-10.085427484474936,15.426543176009684,10578.13919866562
-10.07887378267676,15.417689487550282,10559.11811405182
-10.072374260925248,15.408772204980696,10540.097716169359
-10.065935170764241,15.399792895761394,10521.07594482422
-10.05955130257387,15.390753127352832,10502.052800016405
-10.053221614430164,15.381652675832092,10483.025534820557
-10.04694923210504,15.372493108659631,10463.994835968018
-10.040726862130684,15.363275769372994,10444.961390190125
-10.034558672202989,15.35400312112433,10425.922450561524
-10.028442578474007,15.344673820376105,10406.876643619538
-10.022376497095792,15.335289882434624,10387.824656095507
-10.016364595764237,15.325853098683275,10368.765801258089
-10.010396455239603,15.316363245199133,10349.69801891327
-10.004480410913681,15.306823456903123,10330.619935598375
-9.998612295090577,15.297233062026475,10311.534298238756
-9.992787940074392,15.28759273233796,10292.436986446382
-9.987011513561024,15.277905826681424,10273.328000221254
-9.981277805930599,15.268172345056868,10254.20733956337
-9.975589942955045,15.258392063541368,10235.073631010056
-9.969944798862434,15.248567445287081,10215.926874561312
-9.964341331728795,15.23869893813985,10196.76432329178
-9.958778499630153,15.228789677020602,10177.588037395479
-9.953261512186378,15.218836750931334,10158.394583215715
-9.947776824385805,15.208845086176359,10139.184647483828
-9.942335897392153,15.19881378706398,10119.958230199814
-9.936932479661573,15.188744644977586,10100.713271169663
-9.93156448734612,15.178639227377637,10081.448396930695
-9.926232962369767,15.168497758187057,10062.164980945588
-9.920938946656486,15.158320461328769,10042.860963020326
-9.91567514673846,15.14811069564662,10023.53565642357
-9.91044677223556,15.137868237217688,10004.188374423982
-9.905249655451886,15.127593086041973,9984.818430290223
-9.900087964083339,15.117288824886243,9965.425137290955
-9.89495544658607,15.10695522982758,9946.008495426178
-9.889850019112133,15.09659230086598,9926.567131233216
-9.884775849357425,15.086204516459908,9907.098297786713
-9.879728769626048,15.075789189534284,9887.604742012025
-9.874706696070053,15.065349455010036,9868.083716983796
-9.869714838309312,15.054886208578854,9848.535222702027
-9.864743819028057,15.044400122009508,9828.957885704041
-9.859800931694105,15.03389141922492,9809.351705989839
-9.854879924763615,15.023364354760632,9789.715996828081
-9.849981840160558,15.01281579369572,9770.048698024752
-9.845103552113013,15.002249990565725,9750.351183042527
-9.840247144468927,14.991666945370643,9730.620018224718
-9.835409491456378,14.981066658110478,9710.856577033997
-9.830591634999342,14.970452935474922,9691.060859470368
-9.825790449325892,14.959825553541053,9671.230118608475
-9.821003850588083,14.94918451230887,9651.365041179659
-9.816239132253733,14.938532274930528,9631.462880258561
-9.811484833159126,14.927869513174798,9611.523635845186
-9.806745121000159,14.917198018425063,9591.549368133547
-9.802018953852858,14.906516223220862,9571.535956735612
-9.797306331717222,14.89582860602066,9551.484088382722
-9.792603086897355,14.885135390747378,9531.393076343538
-9.787909219393255,14.874437025246861,9511.261547155382
-9.783228896900821,14.863734181287882,9491.089500818254
-9.778550658256338,14.853028650253824,9470.875563869477
-9.773885964623517,14.842321999605153,9450.618362846375
-9.769223354838646,14.831613557573093,9430.319271211625
-9.764570122369545,14.820907130847344,9409.976228771211
-9.759917931824416,14.810203615119594,9389.588548793794
-9.755269908975185,14.799500547237692,9369.154171085358
-9.75062605382185,14.78880307742887,9348.675155839921
-9.745984282516465,14.778111429616049,9328.148069400788
-9.741344595059028,14.767425379876308,9307.573598499299
-9.73670178182967,14.756746271747186,9286.951056404116
-9.732061052448257,14.746075672689143,9266.279069652559
-9.727411987675053,14.735416717623107,9245.556264781953
-9.722765006749796,14.724767167319843,9224.784015254976
-9.718116983900565,14.714130604546124,9203.959574146273
-9.713461667583514,14.703506357533179,9183.082254724504
-9.708799057798643,14.692897561201933,9162.151370258332
-9.704129154545951,14.682305783012849,9141.166920747757
-9.69945404167339,14.67172855981377,9120.127532730103
-9.694770593409034,14.661170817909008,9099.03251947403
-9.690074642056986,14.65063233337564,9077.8811942482
-9.685373481085067,14.640113777982434,9056.671496858598
-9.680656691253533,14.629616943112776,9035.40411403656
-9.675929482182259,14.619142948381281,9014.077672319414
-9.671191853871239,14.608693585171334,8992.690798244477
-9.666439638624581,14.598269301328784,8971.242805080416
-9.661670752594334,14.587870992545323,8949.734379558564
-9.656886237704473,14.577502017664798,8928.161401290894
-9.652087135878974,14.567160585303823,8906.5273039341
-9.647266153650012,14.5568496064604,8884.827280368805
-9.642430584485412,14.546570872517913,8863.062704057695
-9.637575218765301,14.536324607399287,8841.23082807541
-9.632701098413653,14.526113050333754,8819.33233915329
-9.627800929962648,14.515935977398389,8797.366550559998
-9.622882006880106,14.505795627822424,8775.330715370179
-9.617943287242053,14.4956933451434,8753.224833583832
-9.61297747758067,14.485630472898853,8731.047531738282
-9.607986661743901,14.475607682857556,8708.798809833528
-9.602972923579701,14.465627214248737,8686.47866786957
-9.59793001154422,14.45569041060994,8664.082298727037
-9.592862093333357,14.445798391555776,8641.611762599947
-9.587768127023137,14.43595138100917,8619.064999294282
-9.582642902993689,14.426150946430585,8596.442008810045
-9.577487463168987,14.41639999881802,8573.73935749054
-9.572304933320954,14.40669943386317,8550.959792261125
-9.567091145753693,14.397049923334807,8528.09713253975
-9.561845058543229,14.387453482539232,8505.155498714448
-9.55656354591764,14.377910783245222,8482.130770397187
-9.551251817496798,14.368423840759082,8459.02226085663
-9.54590257981288,14.35899332684958,8435.829970092775
-9.541363958980948,14.348930902450881,8400.645976696016
-9.537100406078224,14.338469671326006,8355.210457878115
-9.532718073842434,14.327991645981895,8303.278460597992
-9.528058589829485,14.317757024855274,8247.720521850588
-9.523113618647585,14.307879000983808,8190.269264802933
-9.517916501863914,14.298362612633271,8131.859330806733
-9.512523503373076,14.28916632210141,8072.957697172166
-9.506979425905971,14.28022955823751,8013.782744464876
-9.501318652953747,14.271498243655623,7954.436795654298
-9.49556723261576,14.262927929655497,7894.965175008775
-9.48978038686265,14.25443923556087,7835.392604856492
-9.483951864150567,14.246027570951814,7775.729386167527
-9.47809520949118,14.237687113832326,7715.985819911958
-9.472215632504358,14.229415289088793,7656.170146865846
-9.466313133190104,14.221205155110594,7596.292667999269
-9.460398130788157,14.213052681285113,7536.362997550966
-9.454467499526595,14.204950254232962,7476.393496685029
-9.44853061672119,14.19689664237806,7416.3924061775215
-9.442592691991807,14.188882217034717,7356.367966804505
-9.436654767262427,14.180904515050774,7296.33391319275
-9.430724136000867,14.172956035008305,7236.29711265564
-9.424803923979049,14.165032522371769,7176.26992635727
-9.41889621504492,14.15712641974251,7116.259221611024
-9.413013512286177,14.14923352856572,7056.278046312333
-9.407148522234996,14.141348306749048,6996.335327968598
-9.40198995663837,14.132930372298143,6927.589400596619
-9.397131465146336,14.124152649690426,6851.202213621141
-9.392279225198148,14.11529235550479,6769.961209545137
-9.3873321701683,14.10652202235354,6686.078350009919
-9.382292383904742,14.097908995055818,6600.919543647767
-9.377203627214394,14.089445772193702,6515.229207229615
-9.372102367436355,14.081091263910785,6429.379549140931
-9.36702923960562,14.072805052119438,6343.538131828309
-9.362009249897573,14.064554332111415,6257.766761112214
-9.357039272540293,14.056320350341897,6172.079858350755
-9.352160984492746,14.048062688723254,6086.469869499208
-9.347358756895323,14.039796741956454,6000.917566080095
-9.342635715519945,14.031539752106582,5915.400285959245
-9.337974147659049,14.023308065547027,5829.900174121857
-9.333366759844814,14.015120939649185,5744.395941896439
-9.328811468229294,14.006991473904058,5658.866987342834
-9.324295769724795,13.998939821374737,5573.293738617897
-9.319811328939524,13.990983280107034,5487.655250415803
-9.315348768557714,13.983139260108226,5401.932637624741
-9.310902878959492,13.975426235019475,5316.10461157322
-9.306468450524987,13.967860719156365,5230.152630515099
-9.302029854394585,13.960463089504906,5144.055405778885
-9.29758083902444,13.953248908708256,5057.7937088871
-9.293113069022757,13.94624084896239,4971.34659453392
-9.288623418617616,13.939453745160966,4884.694834241867
-9.2840962589494,13.932910773326533,4797.818169436455
-9.279525338474265,13.926628111890292,4710.697715005875
-9.274903363724391,13.920628265106018,4623.311838912964
-9.270221999307983,13.914928307096607,4535.640969314575
-9.265477077529145,13.909550966038761,4447.664504270554
-9.26065505337621,13.904516003130448,4359.362528572083
-9.255520452030995,13.900009274397904,4274.412145171165
-9.250606738568324,13.8955956976014,4192.937995805741
-9.246027482701395,13.891049166569262,4119.696725091934
-9.241952518038014,13.886360444480909,4052.7407629537583
-9.237676462047597,13.882306040053177,3993.1293924808506
-9.233294129811807,13.879006311857275,3938.4175067424776
-9.228542956489122,13.876569302703635,3891.705697731972
-9.223196844577128,13.875245414401094,3850.1351028871536
-9.217204739801085,13.875316230025549,3802.6314926433565
-9.209837295379002,13.87742183325289,3747.729382324219
-9.200923635779098,13.881741082518007,3687.1593349027635
-9.190787799357372,13.887901258115273,3623.241815571785
-9.179895526130323,13.895268042384066,3557.9522070264816
-9.168688591863045,13.903181310546865,3492.6749596452714
-9.157502496075253,13.911114787753482,3428.2702044296266
-9.146583132824874,13.918608816223369,3365.277712211609
-9.136097209947792,13.925344641675386,3303.9993014144898
-9.12611557827426,13.9311584085105,3244.5036451721194
-9.116654908587861,13.93600415654873,3186.705588798523
-9.107694362409115,13.939913067057129,3130.4780869960787
-9.099191220855074,13.94292012799244,3075.6899740791323
-9.09112881314215,13.945062902425029,3022.2138613843917
-9.083477965399066,13.946378337637219,2969.921673517227
-9.076534584034512,13.94667117284,2915.1661803388597
-9.070107996961196,13.946069268022507,2858.1087637138367
-9.064081508694002,13.944740061550542,2799.6972845721248
-9.058441574221265,13.942807382800622,2740.7324716544153
-9.053238205893745,13.940348037335395,2681.694350166321
-9.04737738353846,13.938273615375104,2635.358698246479
-9.041521770803048,13.936370550431775,2600.757911438942
-9.036110017680675,13.934337162347155,2573.9642298531535
-9.031225478089285,13.932067591559319,2551.5043380618094
-9.026757708087603,13.929636796266797,2531.0320184469224
-9.022577509102819,13.927187807236766,2511.16453745842
-9.018532760234692,13.924889798237686,2491.161255347729
-9.014515101389897,13.922879978040733,2470.6705656695367
-9.010450555966258,13.921244556971326,2449.559757592678
-9.006303698548653,13.920027199999486,2427.81200619936
-9.001999510610931,13.919291837119781,2405.457184302807
-8.997542159848992,13.919008462660504,2382.5629349398614
-8.992918101251169,13.919141808761255,2359.198446292877
-8.98812941866541,13.919660078366942,2335.4329065442084
-8.983164650928002,13.920529739019821,2311.334817144871
-8.97801650457112,13.92171602668607,2286.974739739895
-8.972688105366688,13.923185017042826,2262.4222058773043
-8.967151321367403,13.924902002037,2237.746060373783
-8.961423865280825,13.926831098020148,2213.016864874363
-8.955479689007598,13.928935749575068,2188.304837658405
-8.949314624851826,13.931180576879893,2163.67899522543
-8.942405626978424,13.933904655221044,2144.8975798487663
-8.935128829942101,13.93684705841229,2131.7202355599406
-8.927835362122192,13.939648893988513,2122.6232772016524
-8.920713811758038,13.942038431482441,2116.2605396676063
-8.913856910083348,13.943857973175426,2111.734121732712
-8.907301124437224,13.945047227820407,2108.506999490261
-8.901051664439535,13.945595838982186,2106.273234128952
-8.895106446242334,13.945534260178313,2104.848438284397
-8.889459218301775,13.944905036764192,2104.1084852671625
-8.884119357933628,13.943750154287919,2103.71567494154
-8.879007678915844,13.942193386145277,2103.552576248646
-8.874059581962022,13.940341879455007,2103.556696636677
-8.869214635481654,13.938302781335848,2103.667947113514
-8.8644217852,13.93616706047534,2103.8322475862506
-8.859666444181418,13.933992153103274,2103.8470123100283
-8.854927773946425,13.931823683515251,2103.6978199267387
-8.850189103711433,13.929686787059396,2103.422097294331
-8.845442098084646,13.92758941299948,2103.0624217557906
-8.840695092457858,13.92552842641458,2102.65261482954
-8.835952254526969,13.923489384276152,2102.2177422094346
-8.831212542368002,13.921464505262614,2101.773598716259
-8.826485333296725,13.91944477647631,2101.327910077572
-8.821760208073398,13.917424263959774,2100.884968364239
-8.817043418241866,13.915399384946236,2100.446833770275
-8.812326628410332,13.9133626939985,2100.0141930270197
-8.807614006274697,13.911313799251452,2099.5868744516374
-8.802902426063035,13.909246990670551,2099.16419131279
-8.798266906301494,13.907100801413383,2097.870561153889
-8.793664728107132,13.9048998630015,2095.7664163327217
-8.789051088749051,13.90268660882884,2093.1176935601234
-8.784418694759434,13.9004957469485,2090.157538125515
-8.780238495774652,13.898005388158413,2081.8511792206764
-8.776189579210628,13.895426020006365,2068.5849032235146
-8.771994793290206,13.893041912643325,2051.8860006308555
-8.767512436352884,13.891061202426382,2033.0870736050606
-8.762823778468656,13.889504770168127,2011.9407271814348
-8.75791840039778,13.888383196226675,1989.111545612812
-8.752852566034866,13.887630087455308,1965.3223136329652
-8.747717964689649,13.887135273775822,1941.1110852456093
-8.742607327595842,13.886777109060205,1916.8141871237756
-8.73760088289946,13.88644519930733,1892.6117145609855
-8.732779900670499,13.886030661995802,1868.5833283925058
-8.728170429008317,13.885490839808758,1844.7297153496743
-8.723798516012268,13.884804460068498,1821.0131052088739
-8.719639155506972,13.883997385872647,1797.4640575146675
