Latitude,Longitude,Altitude (m)
22.905064748637358,120.27388545191131,9.40058916091919
22.90505875369406,120.27388742518617,9.399982662200927
22.90505274298988,120.27388938647228,9.39937653541565
22.905046718598612,120.2738913358945,9.398770408630371
22.90504067989812,120.27389327320309,9.398164529800415
22.905034627095784,120.27389519852291,9.39755877494812
22.905028559569462,120.27389711147933,9.396953020095825
22.905022478356052,120.27389901244699,9.39634738922119
22.9050163830408,120.27390090092635,9.395741758346556
22.905010274453222,120.27390277766672,9.39513674736023
22.90500415093428,120.27390464116951,9.394531488418579
22.90499801538729,120.27390649243377,9.393926353454589
22.904991865116315,120.27390833095997,9.393321466445922
22.904985702402538,120.27391015699787,9.392716827392578
22.904979525794293,120.27391197004796,9.392111940383911
22.904973336121106,120.27391377011023,9.391507425308227
22.904967133797733,120.27391555718467,9.390902910232544
22.904960918409415,120.27391733152105,9.390298643112182
22.90495468995615,120.27391909261985,9.389694499969481
22.904948449474844,120.27392084048105,9.38909023284912
22.904942195721212,120.27392257510468,9.388486337661742
22.904935929939533,120.27392429624095,9.387882442474364
22.90492965130029,120.27392600413962,9.387278671264648
22.904923361255143,120.27392769830118,9.386675024032593
22.904917058767193,120.27392937922515,9.386071252822875
22.90491074383644,120.27393104591246,9.385467977523803
22.904904417707158,120.27393269911242,9.38486470222473
22.904898079342452,120.2739343383255,9.384261426925658
22.904891729364465,120.27393596380146,9.383658151626587
22.90488536818795,120.273937574791,9.383055372238159
22.904878995190774,120.27393917204343,9.382452220916747
22.904872611409832,120.27394075530896,9.381849317550659
22.904866215393465,120.27394232396318,9.38124653816223
22.904859809008094,120.27394387838076,9.380644130706786
22.904853391838962,120.27394541831192,9.380041599273682
22.904846963056542,120.27394694350691,9.379438943862915
22.9048405241125,120.27394845434036,9.378836660385131
22.904834074592074,120.27394995031274,9.378234252929687
22.904827614910023,120.27395143192358,9.377632093429565
22.904821144236827,120.27395289842359,9.377030057907104
22.90481466319463,120.27395434981277,9.376428022384642
22.90480817199081,120.27395578634089,9.375826110839844
22.904801670832743,120.27395720775817,9.375224199295044
22.904795160342573,120.27395861406461,9.374622535705566
22.904788639068638,120.27396000526024,9.374020624160766
22.904782108255223,120.2739613807206,9.37341908454895
22.90477556831708,120.27396274082038,9.372817544937133
22.904769018632077,120.2739640851849,9.372216005325317
22.90476245940759,120.27396541418884,9.3716144657135
22.904755890851,120.27396672758239,9.371013298034667
22.904749313584446,120.2739680253656,9.370412130355835
22.904742726778405,120.27396930703891,9.36981083869934
22.904736131677165,120.27397057285208,9.36920991897583
22.90472952703644,120.27397182243048,9.368608751296996
22.904722914515272,120.27397305602386,9.368007707595824
22.904716292454623,120.27397427363223,9.367406911849976
22.904709662928287,120.27397547475606,9.366806116104126
22.90470302427723,120.27397665964511,9.366205196380616
22.90469637795311,120.27397782779985,9.365604524612426
22.904689723333785,120.27397897971981,9.3650039768219
22.90468306021188,120.27398011503035,9.364403429031372
22.90467639003905,120.27398123360658,9.363802757263183
22.904669711571017,120.27398233532361,9.363202333450317
22.9046630256373,120.27398342030634,9.362602033615111
22.904656332237902,120.2739844880552,9.362001485824585
22.904649631372823,120.27398553882001,9.36140118598938
22.904642923042058,120.2739865728505,9.360801010131835
22.904636207245613,120.27398758964716,9.360200834274291
22.904629485020383,120.27398858871044,9.35960078239441
22.904622755536852,120.27398957078965,9.359000606536865
22.904616019209776,120.27399053538525,9.358400678634643
22.90460927603916,120.27399148224747,9.357800750732421
22.904602526025002,120.27399241137631,9.3572008228302
22.904595769789438,120.27399332302156,9.356600894927977
22.904589007125093,120.27399421705832,9.356000967025757
22.90458223823935,120.2739950932368,9.355401163101195
22.9045754631322,120.2739959511824,9.35480173110962
22.904568682218407,120.27399679114485,9.354201803207397
22.904561895083216,120.27399761312417,9.35360224723816
22.90455510172662,120.2739984167457,9.353002691268921
22.904548303807662,120.27399920200943,9.352403135299681
22.90454149945992,120.27399996904026,9.351803703308105
22.90453468930554,120.27400071733867,9.351204271316528
22.904527874381415,120.27400144765392,9.350604963302612
22.904521054272788,120.27400215873722,9.350005531311036
22.904514228564903,120.27400285133783,9.34940622329712
22.904507398087272,120.27400352520601,9.348806915283202
22.9045005628399,120.27400418009199,9.348207731246948
22.904493723030168,120.27400481599577,9.347608423233032
22.904486878035932,120.27400543279246,9.34700961112976
22.904480028479334,120.27400603073184,9.346410179138184
22.904473174982517,120.27400660943924,9.345811367034912
22.904466316923337,120.27400716854002,9.345212430953978
22.904459454301794,120.27400770840885,9.344613370895384
22.90445258794741,120.27400822879594,9.344014434814452
22.904445717652806,120.27400872957641,9.34341549873352
22.90443884362536,120.27400921075025,9.34281681060791
22.904431965657693,120.27400967231749,9.342218122482299
22.904425083749803,120.27401011377857,9.341619186401367
22.90441819852383,120.27401053563305,9.341020622253417
22.90441131018716,120.2740109371316,9.340422058105469
22.90440441832503,120.27401131889866,9.339823369979857
22.904397522937433,120.2740116803098,9.33922480583191
22.90439062506128,120.27401202148991,9.338626117706298
22.904383723659663,120.274012342439,9.338027925491332
22.904376819976868,120.27401264290728,9.337429485321044
22.904369913598128,120.27401292301964,9.336831045150756
22.904363004316068,120.27401318240145,9.33623272895813
22.904356092130687,120.27401342117757,9.335634660720824
22.904349178701025,120.27401363897336,9.335036220550537
22.904342261953285,120.27401383641325,9.33443802833557
22.904335343546503,120.27401401262303,9.333839960098267
22.9043284232733,120.27401416785249,9.333242139816283
22.904321500926294,120.27401430197673,9.33264407157898
22.904314576505488,120.27401441499576,9.332046003341674
22.904307651047784,120.27401450678471,9.331448183059692
22.90430072351628,120.27401457709378,9.330850238800048
22.90429379432573,120.27401462617277,9.330252542495726
22.904286864720422,120.27401465352213,9.329654722213744
22.904279933041316,120.27401465939163,9.329057149887085
22.904273000325308,120.27401464365637,9.328459577560425
22.90426606677978,120.27401460581686,9.327862129211425
22.90425913261211,120.27401454637258,9.327264556884765
22.90425219740754,120.27401446494893,9.326667108535766
22.904245261580833,120.27401436129611,9.326069784164428
22.904238325339364,120.27401423566391,9.32547245979309
22.904231388683133,120.27401408830207,9.324875383377075
22.904224451612144,120.27401391821155,9.324278182983399
22.904217514333773,120.2740137256421,9.323681106567383
22.9042105770554,120.2740135108435,9.323084154129027
22.904203639777034,120.27401327381574,9.322487077713012
22.90419670270604,120.27401301368464,9.32189037322998
22.904189765842432,120.27401273094972,9.321293544769286
22.904182829393584,120.27401242536125,9.320696840286255
22.904175893566876,120.27401209716896,9.320100259780883
22.904168958154926,120.27401174574845,9.319503679275511
22.904162023572496,120.27401137109972,9.318907346725464
22.90415509002697,120.27401097397207,9.318311014175414
22.90414815731096,120.27401055299177,9.317714433670044
22.904141225839233,120.27401010915791,9.317118473052979
22.904134294989642,120.27400964172118,9.316522264480591
22.9041273657991,120.27400915080646,9.315926303863526
22.90412043826759,120.27400863641375,9.31533034324646
22.904113511772984,120.27400809841818,9.314734506607055
22.90410658755956,120.27400753681974,9.314138793945313
22.904099664694105,120.27400695111888,9.313543329238891
22.90409274359138,120.2740063415654,9.31294774055481
22.90408582497722,120.27400570840905,9.312352275848388
22.904078908229476,120.27400505065076,9.311756935119629
22.904071993244465,120.27400436891496,9.31116171836853
22.904065081370156,120.27400366307674,9.310566873550414
22.904058171569645,120.27400293301126,9.309971656799316
22.904051264257696,120.27400217809407,9.309376935958863
22.904044359745377,120.27400139919935,9.308782091140747
22.904037458136383,120.27400059545295,9.308187494277954
22.904030559223326,120.27399976735437,9.307593021392822
22.904023663317282,120.27399891415433,9.30699854850769
22.90401677072932,120.27399803622747,9.30640432357788
22.904009881355748,120.2739971335738,9.305810346603392
22.904002995300257,120.27399620581866,9.305216121673583
22.903996112770226,120.27399525283717,9.30462239265442
22.90398923376566,120.27399427475422,9.304028539657592
22.903982358493934,120.27399327169469,9.303434934616089
22.903975487162427,120.27399224278439,9.302841701507568
22.903968619356384,120.27399118877263,9.302248220443726
22.903961756112704,120.27399010928475,9.301655111312865
22.903954896912932,120.27398900432077,9.30106225013733
22.903948042068144,120.27398787338113,9.30046914100647
22.903941191267265,120.27398671684051,9.299876527786255
22.90393434523613,120.273985534574,9.299283790588378
22.903927503663667,120.27398432620696,9.298691549301147
22.903920667068324,120.27398309186428,9.298099431991577
22.903913835139033,120.27398183129618,9.297507066726684
22.903907008186867,120.27398054487733,9.296915197372437
22.90390018652289,120.27397923198329,9.29632345199585
22.903893369939723,120.27397789261408,9.295731954574585
22.90388655864475,120.27397652701946,9.295140581130982
22.903879752741663,120.27397513494967,9.294549083709716
22.903872952230454,120.27397371615493,9.293958082199095
22.903866157836955,120.27397227063524,9.293367328643798
22.903859368524273,120.27397079839062,9.29277632713318
22.90385258564037,120.27396929929617,9.292185945510864
22.9038458086668,120.273967773227,9.29159556388855
22.903839037499875,120.27396622005826,9.291005430221556
22.90383227286542,120.27396464016455,9.290415544509887
22.903825514452365,120.27396303254686,9.289825410842894
22.903818762364406,120.27396139795445,9.28923602104187
22.90381201711999,120.27395973613757,9.288646755218505
22.903805278304354,120.27395804659668,9.288057489395142
22.90379854633226,120.27395632970642,9.287468471527099
22.90379182141109,120.27395458521706,9.28687970161438
22.903785103333462,120.27395281300367,9.286291055679321
22.90377839230676,120.27395101281654,9.285702781677246
22.903771688538356,120.27394918478049,9.28511438369751
22.903764992443016,120.27394732889557,9.284526605606079
22.90375830360598,120.27394544491199,9.28393907546997
22.903751622234626,120.27394353282976,9.28335117340088
22.903744948743714,120.27394159277375,9.282764015197753
22.903738282925868,120.27393962411955,9.28217698097229
22.903731624988463,120.27393762724182,9.281590070724487
22.90372497524257,120.27393560189078,9.281003532409667
22.903718333584504,120.27393354819134,9.280416870117188
22.903711699910566,120.27393146551904,9.279830827713011
22.903705074946593,120.27392935437345,9.279244785308837
22.903698458588895,120.27392721425502,9.278659114837646
22.9036918505264,120.27392504516375,9.278073692321778
22.903685251277555,120.27392284747431,9.277488145828247
22.903678660946056,120.27392062056225,9.276903467178345
22.90367207973928,120.27391836455249,9.27631866455078
22.90366550703509,120.27391607932012,9.275733985900878
22.90365894387038,120.27391376486514,9.275149927139282
22.903652389830395,120.27391142081292,9.274565868377685
22.9036458452262,120.27390904741321,9.273981809616089
22.90363931016149,120.27390664466603,9.273398370742797
22.903632784532576,120.27390421207183,9.272815179824828
22.903626268754216,120.27390174988037,9.27223198890686
22.903619763033788,120.2738992578419,9.271649169921874
22.903613266956533,120.27389673583153,9.271066598892212
22.903606781040903,120.27389418397415,9.270484399795532
22.903600305286897,120.27389160201999,9.269902448654175
22.903593840005588,120.27388898996904,9.269320497512817
22.9035873848859,120.27388634757155,9.268739042282103
22.903580940549972,120.27388367507727,9.268157958984375
22.903574506583052,120.27388097198669,9.267576875686645
22.903568083607276,120.27387823854956,9.266996164321899
22.903561671207882,120.27387547464099,9.266415824890137
22.903555269903325,120.27387268013611,9.265835733413695
22.903548879589913,120.27386985453539,9.265255641937255
22.90354250078609,120.27386699846323,9.264676170349121
22.903536132973414,120.27386411142012,9.264096822738647
22.903529776774025,120.27386119353093,9.263517661094665
22.90352343198054,120.27385824454589,9.262938933372498
22.903517098800336,120.27385526446501,9.26236039161682
22.903510777440797,120.27385225291364,9.261782159805298
22.903504467798232,120.27384921026642,9.261204175949096
22.903498170183713,120.2738461361487,9.260626502037049
22.90349188490831,120.27384303081027,9.260048952102661
22.903485611660948,120.27383989362669,9.259471836090087
22.903479350856394,120.27383672484773,9.258895030021668
22.90347310228726,120.2738335243485,9.258318409919738
22.903466866368316,120.27383029212903,9.257742037773133
22.903460643099557,120.2738270280644,9.257165913581847
22.903454432480977,120.27382373178,9.25659040927887
22.903448234927346,120.27382040390022,9.25601490497589
22.90344205023128,120.27381704355086,9.255439586639405
22.90343587880754,120.27381365098174,9.254864702224731
22.90342972044874,120.27381022631769,9.25429000377655
22.90342357556965,120.27380676918409,9.253715863227844
22.903417443962883,120.27380327958095,9.253141660690307
22.903411325939512,120.27379975738334,9.252567706108092
22.903405221706915,120.27379620259131,9.251994371414185
22.903399131057714,120.27379261495507,9.251421160697937
22.903393054510357,120.2737889947244,9.25084813594818
22.903386991857467,120.27378534139974,9.250275607109069
22.90338094320273,120.27378165535578,9.249703016281128
22.90337490885722,120.27377793621784,9.249131169319153
22.903368889028314,120.2737741841108,9.248559260368348
22.903362883508635,120.27377039853515,9.247987599372863
22.903356892505563,120.27376657974065,9.247416186332702
22.903350916330165,120.27376272747752,9.246845455169677
22.90334495477506,120.27375884187066,9.246274724006652
22.903339008151324,120.27375492254541,9.24570424079895
22.903333076562642,120.27375096987643,9.2451340675354
22.903327160009017,120.2737469831144,9.24456395626068
22.903321258801515,120.27374296313353,9.243994588851928
22.903315372940142,120.27373890880986,9.243425283432007
22.903309502632272,120.2737348207678,9.242856040000914
22.90330364767053,120.2737306986327,9.2422873544693
22.903297808573363,120.27372654234213,9.241718730926513
22.903291985237082,120.27372235208341,9.24115035533905
22.903286177765377,120.27371812723213,9.240582413673401
22.90328038646932,120.27371386791316,9.240014843940735
22.903274611037837,120.27370957468848,9.23944739818573
22.90326885198938,120.27370524662146,9.238880076408385
22.90326310942764,120.27370088383701,9.238313002586365
22.903257383248924,120.2736964863351,9.237746424674988
22.903251673660616,120.27369205411574,9.237179970741272
22.903245980662714,120.27368758717893,9.23661388874054
22.90324030456629,120.27368308527491,9.236047806739807
22.90323464537134,120.27367854802901,9.235482096672058
22.903229003285247,120.27367397600324,9.234916882514954
22.90322337810063,120.27366936876048,9.234351544380187
22.90321777054332,120.27366472623831,9.233786702156067
22.903212180198558,120.27366004837425,9.233221859931945
22.90320660717003,120.27365533491859,9.232657513618468
22.903201051872504,120.27365058612105,9.232093291282654
22.90319551440966,120.27364580173189,9.23152925491333
22.903189994677813,120.2736409816262,9.23096559047699
22.903184492780653,120.27363612567913,9.230402112007141
22.903179009081093,120.27363123395311,9.229838881492615
22.903173543371757,120.27362630644812,9.229275650978089
22.903168096067404,120.27362134266467,9.228712792396545
22.903162667116188,120.2736163430398,9.228150305747985
22.903157256518107,120.27361130694914,9.227588005065918
22.90315186473977,120.27360623495463,9.227025890350342
22.903146491625638,120.27360112636943,9.226463713645934
22.903141137279402,120.2735959814433,9.225901970863342
22.903135802012134,120.27359080011381,9.225340476036072
22.903130485720144,120.27358558213118,9.224779229164124
22.903125188558967,120.27358032755785,9.224217982292174
22.903119910787826,120.27357503595675,9.223656983375548
22.903114652251187,120.27356970782739,9.223096232414246
22.903109413519346,120.27356434260781,9.222535853385924
22.903104194281234,120.27355894061022,9.221975288391112
22.903098994640537,120.27355350145996,9.221415095329284
22.903093815012017,120.27354802509458,9.220855274200439
22.903088655343833,120.27354251151411,9.220295329093933
22.903083515687822,120.27353696078096,9.219735693931579
22.90307839619953,120.27353137239562,9.219176120758057
22.903073297034478,120.27352574679517,9.218616795539855
22.90306821840006,120.2735200834801,9.218057656288147
22.903063160192577,120.27351438257524,9.217498455047608
22.90305812261941,120.27350864383088,9.216939749717712
22.903053105836097,120.2735028675592,9.216381106376648
22.90304811005002,120.27349705301091,9.215822339057922
22.903043135053792,120.27349120081043,9.21526406764984
22.90303818126218,120.27348531033333,9.214705610275269
22.903033248727024,120.2734793820167,9.21414764881134
22.903028337448323,120.27347341548591,9.213589625358582
22.903023447737155,120.27346741061606,9.213031477928162
22.90301857938613,120.27346136715741,9.212473640441894
22.903013732861865,120.27345528542213,9.211915926933289
22.903008908112504,120.27344916503559,9.211358585357665
22.903004105189897,120.27344300612268,9.210800995826721
22.902999324405116,120.27343680868339,9.210243530273438
22.902994565550774,120.2734305724055,9.209686188697814
22.902989829041637,120.27342429728904,9.209129157066345
22.902985114981394,120.27341798308423,9.208571877479553
22.902980423214508,120.27341162979107,9.208014659881592
22.90297575415574,120.27340523753443,9.207457814216614
22.902971107805094,120.273398806127,9.206901030540466
22.902966484369944,120.27339233563124,9.206344122886657
22.902961883591068,120.2733858257349,9.205787525177001
22.90295730614245,120.27337927618825,9.205230555534362
22.90295275166118,120.27337268724104,9.204674019813536
22.902948220562006,120.27336605889326,9.20411742210388
22.90294371300048,120.27335939077028,9.203560638427733
22.90293922871736,120.27335268287209,9.20300416469574
22.90293476807557,120.27334593532358,9.202447752952576
22.90293033133434,120.2733391477501,9.201891093254089
22.902925918234434,120.2733323200892,9.201334557533263
22.902921529242462,120.27332545252821,9.200777897834778
22.90291716441027,120.27331854494226,9.200221548080444
22.90291282358232,120.27331159695667,9.199665074348449
22.902908507225224,120.27330460869635,9.199108414649963
22.902904215287126,120.27329758022373,9.198551754951476
22.902899947819883,120.27329051103929,9.197995343208312
22.902895705134554,120.2732834015801,9.197438931465149
22.902891487231148,120.2732762512842,9.196882209777831
22.90288729421335,120.27326906040136,9.196325426101684
22.902883126184854,120.27326182886914,9.195768828392028
22.902878983249344,120.27325455631288,9.19521210670471
22.902874865510515,120.27324724279501,9.194655199050903
22.902870773279435,120.27323988831556,9.194098229408263
22.902866706556107,120.2732324929994,9.193541383743286
22.90286266539237,120.27322505603478,9.192984352111816
22.902858649943767,120.2732175782959,9.192427134513855
22.902854660365826,120.27321005890856,9.191870102882385
22.902850696814085,120.27320249834108,9.191312699317931
22.90284675918485,120.27319489612515,9.19075541973114
22.90284284789289,120.27318725257298,9.190197644233702
