Latitude,Longitude,Altitude (m)
22.90179381716833,120.27402597345385,20.003908624775708
22.90180164052422,120.27402994798187,20.004124806448818
22.901809564707154,120.27403388435678,20.004341191262007
22.9018175893056,120.2740377830188,20.004557616703213
22.90182571370225,120.27404164352768,20.00477392026037
22.90183393645671,120.27404546647043,20.00499038632959
22.901842258803608,120.27404925155354,20.005206730514765
22.90185067909678,120.27405299951072,20.00542315595597
22.901859196718913,120.27405671019524,20.00563941888511
22.90186781125848,120.27406038302011,20.00585608809441
22.90187652333278,120.27406401915931,20.0060724729076
22.901885331089897,120.2740676178791,20.00628885772079
22.90189423514713,120.27407117991318,20.00650536441803
22.901903233652558,120.27407470526158,20.006721952371297
22.90191232681195,120.27407819348406,20.006938459068536
22.901921514419534,120.27408164531433,20.00715492513776
22.901930795858007,120.27408506075238,20.00737147246301
22.901940169686977,120.27408843950475,20.007587897904216
22.901949636523756,120.27409178259862,20.007804485857488
22.901959196162576,120.27409508930029,20.00802115506679
22.901968846751508,120.27409835990322,20.008237783648074
22.901978588702093,120.27410159440744,20.008454249717296
22.90198842119125,120.27410479325317,20.00867095955461
22.90199834421898,120.27410795658714,20.008887710019945
22.9020083563449,120.27411108426263,20.009104216717184
22.90201845736324,120.27411417642635,20.00932084529847
22.902028647273998,120.27411723322507,20.00953763639182
22.902038925459863,120.27412025495227,20.00975438685715
22.90204929068622,120.2741232414612,20.009971096694468
22.902059743776153,120.2741261928986,20.010187603391707
22.902070282877727,120.27412910955798,20.01040443511307
22.90208090819672,120.27413199129258,20.01062122620642
22.902091619115815,120.27413483868935,20.01083805792779
22.902102415635017,120.27413765116135,20.011054970905185
22.902113295696633,120.27414042900206,20.011271680742503
22.902124260741047,120.27414317294519,20.011488512463867
22.902135308504793,120.27414588225702,20.01170546606928
22.902146438987874,120.27414855767127,20.011922297790647
22.902157653219138,120.27415119948142,20.012139292024074
22.902168949140886,120.27415380695378,20.012356083117425
22.90218032634158,120.27415638067528,20.012573036722838
22.902191783998145,120.27415892064596,20.012790071584284
22.90220332272789,120.27416142730601,20.013007065817714
22.90221494088465,120.27416390050873,20.013224060051144
22.902226639703056,120.27416634040082,20.013441094912586
22.902238416508094,120.27416874668883,20.013658211030066
22.902250272328615,120.27417112054668,20.013875205263496
22.902262205930004,120.2741734606537,20.014092240124942
22.90227421628341,120.27417576818381,20.01430951875448
22.902286304417682,120.27417804299029,20.01452651298791
22.902298468686666,120.27418028507313,20.014743750989435
22.90231070867882,120.27418249457908,20.014961070246994
22.902323024394143,120.27418467136138,20.015178186364473
22.90233541459802,120.27418681644724,20.01539546499401
22.902347879701995,120.27418892910296,20.01561290613562
22.902360418471442,120.27419100932852,20.01583018476516
22.90237303049483,120.27419305785764,20.016047544650732
22.902385714949073,120.2741950742501,20.01626486390829
22.90239847183418,120.27419705894611,20.016482101909816
22.90241130156168,120.27419901194568,20.016699583679436
22.90242420166235,120.27420093324882,20.016917106077074
22.902437172959257,120.27420282329575,20.01713462847471
22.902450215040872,120.27420468193972,20.017352028988302
22.90246332626103,120.27420650932748,20.01756983578205
22.902476506208203,120.27420830560578,20.01778735817969
22.902489756116996,120.27421007048112,20.01800483994931
22.902503073518183,120.27421180483397,20.018222565487026
22.90251645923484,120.27421350851756,20.018440291024746
22.90252991162081,120.2742151810917,20.018658016562462
22.902543430676094,120.27421682343683,20.018875782728195
22.90255701640069,120.27421843496596,20.01909342700988
22.902570667971524,120.27422001611936,20.01931143694371
22.902584383742436,120.27422156748396,20.01952924373746
22.902598164536506,120.27422308803258,20.01974705053121
22.902612009530657,120.27422457893915,20.019965060465037
22.902625919136426,120.27422603991022,20.02018311102688
22.902639890473043,120.27422747065226,20.020401120960713
22.90265392477512,120.2742288721925,20.02061904963851
22.90266802204266,120.27423024350371,20.020837181456386
22.902682179806433,120.27423158561312,20.021055435158313
22.90269639888951,120.27423289837398,20.02127344509214
22.902710679291896,120.27423418163953,20.021491820678115
22.902725018955895,120.2742354361435,20.021709911867976
22.90273941829304,120.27423666115217,20.021928328081966
22.902753875657186,120.27423785710579,20.02214670366794
22.90276839310602,120.2742390245913,20.02236511988193
22.902782968581846,120.27424016302173,20.022583536095915
22.902797600850054,120.27424127269059,20.02280183042586
22.902812289910642,120.27424235389134,20.023020368523895
22.902827035352065,120.27424340662401,20.023239069133997
22.902841837585868,120.27424443118205,20.023457607232032
22.902856694142816,120.27424542727199,20.023676185958088
22.90287160543445,120.27424639533407,20.023895008452236
22.9028865718723,120.27424733536829,20.02411366843432
22.902901591810224,120.27424824737463,20.024332450300456
22.902916666071288,120.27424913149983,20.02455131342262
22.902931791363184,120.27424998818415,20.024770257800817
22.90294696974361,120.27425081698733,20.024989202179015
22.902962200801024,120.27425161834962,20.025208105929195
22.90297748247773,120.27425239256449,20.025427131563426
22.902992814362193,120.27425313919173,20.02564619782567
22.90300819645441,120.2742538585248,20.02586534534395
22.903023629165922,120.27425455100396,20.02608445223421
22.90303911126211,120.27425521662917,20.026303721636534
22.90305464109682,120.27425585510699,20.02652299103886
22.90307021867005,120.27425646702436,20.0267423010692
22.903085844804878,120.27425705194105,20.026961651727557
22.90310151785515,120.27425761044405,20.027181083641945
22.903117236997787,120.27425814253334,20.027400596812367
22.903133002644328,120.2742586480622,20.027620150610804
22.903148813560154,120.27425912747084,20.02783974503726
22.903164670568348,120.2742595811995,20.028059298835693
22.90318057119967,120.27426000822096,20.02827897451818
22.903196515454127,120.2742604097092,20.02849869082868
22.90321250374325,120.27426078522396,20.028718569651247
22.90322853442089,120.2742611346185,20.028938407845793
22.903244607487046,120.27426145862654,20.029158164784313
22.90326072376479,120.27426175754158,20.029378206118942
22.903276881196437,120.27426203033639,20.02959812556952
22.903293077724282,120.27426227833168,20.029818207532166
22.903309315406023,120.27426250108721,20.030038370750844
22.903325594241664,120.27426269816276,20.030258493341506
22.90334191093889,120.27426287058552,20.03047857530415
22.903358266320783,120.27426301791526,20.030698901034892
22.903374660798875,120.27426314073897,20.03091926739365
22.903391092315474,120.27426323890988,20.03113959312439
22.903407562105198,120.27426331213452,20.031360081367193
22.903424067287276,120.27426336114661,20.03158044772595
22.903440609507857,120.27426338535916,20.031801017224787
22.903457186297715,120.27426338535916,20.032021586723626
22.903473799714543,120.27426336129335,20.032242156222463
22.903490446877566,120.27426331316173,20.03246301011741
22.90350712819832,120.27426324111102,20.032683742128313
22.903523843265273,120.27426314470101,20.032904555395245
22.903540590432268,120.27426302466543,20.033125328034163
22.90355737052238,120.27426288129773,20.033346222557128
22.90357418271253,120.27426271415771,20.033567117080093
22.90359102700272,120.27426252324537,20.033788092859087
22.903607901335253,120.2742623092944,20.03400923115015
22.903624806121673,120.27426207171786,20.034230410069227
22.903641741773516,120.27426181080921,20.034451588988304
22.903658706233088,120.27426152730216,20.03467264602333
22.903675698677308,120.27426122060977,20.03489410933852
22.903692720340796,120.27426089087875,20.03511536951363
22.903709769165857,120.27426053825587,20.035336873456835
22.90372684556403,120.27426016347482,20.03555817425996
22.90374394747762,120.27425976550842,20.035779678203166
22.903761077375854,120.27425934523711,20.036001304030417
22.90377823278951,120.27425890251416,20.03622272671759
22.903795412072423,120.27425843763307,20.03644439317286
22.903812616459216,120.27425795044705,20.036666100256145
22.903829845538347,120.27425744110289,20.03688780733943
22.90384709766366,120.27425690989405,20.037109636306763
22.903864373246698,120.27425635667379,20.03733142464608
22.903881670641297,120.2742557817356,20.037553334869443
22.90389899067054,120.274255184786,20.03777524509281
22.903916331688272,120.27425456670544,20.037997236572206
22.90393369410603,120.2742539267602,20.038219228051602
22.90395107586612,120.274253265684,20.03844130078703
22.90396847820316,120.27425258303661,20.03866345477849
22.903985899470992,120.27425187940501,20.038885568141936
22.904003340492693,120.27425115464246,20.039107925273477
22.90402079921057,120.2742504086022,20.039330241777
22.904038275213086,120.27424964187121,20.03955243639648
22.90405576850024,120.27424885400924,20.03977471227199
22.904073277425873,120.27424804560331,20.039997191287576
22.90409080487076,120.27424721665338,20.040219792187212
22.904108347131046,120.27424636701272,20.040442108690737
22.9041259037952,120.27424549697481,20.040664790846407
22.904143475274758,120.27424460697989,20.04088722923398
22.90416106198126,120.27424369585401,20.041109748877584
22.904178661033924,120.27424276550482,20.041332593545317
22.904196272844302,120.27424181490514,20.041555397585032
22.904213897412387,120.2742408439082,20.041778079740702
22.9042315339151,120.27423985324774,20.04200076189637
22.904249182352448,120.27423884292374,20.04222352530807
22.904266841078265,120.27423781264272,20.042446491859852
22.90428450926948,120.27423676357864,20.0426693771556
22.904302188983788,120.2742356941173,20.042892303079366
22.904319876517338,120.27423460587289,20.04311522900313
22.90433757392782,120.27423349825844,20.043338236182926
22.904355278746003,120.27423237127392,20.043561324618757
22.90437299179497,120.27423122521287,20.043784413054585
22.904390711017015,120.27423006051548,20.044007501490412
22.904408437235226,120.27422887674152,20.04423083369434
22.90442616962652,120.27422767418449,20.044453922130167
22.90444390942552,120.27422645284437,20.044677091822027
22.904461650870672,120.27422521286795,20.044900383397938
22.90447939807737,120.27422395425518,20.045123634345828
22.90449715022254,120.2742226774463,20.04534700717777
22.904514904836937,120.27422138244133,20.04557025812566
22.904532663155187,120.27422006865326,20.045793590329588
22.904550423119595,120.27421873740282,20.04601712567359
22.904568185964774,120.27421738766279,20.0462404172495
22.904585947986877,120.27421601987339,20.046463993221522
22.904603711243595,120.27421463476836,20.046687406681478
22.90462147655801,120.2742132314672,20.046911023281513
22.904639239814728,120.27421181070368,20.04713455862552
22.904657002659906,120.27421037218426,20.047357972085475
22.90467476427047,120.27420891664269,20.047581548057497
22.90469252423488,120.27420744290501,20.04780520528555
22.904710280906972,120.27420595287889,20.048028740629555
22.904728035109834,120.27420444524363,20.048252438485623
22.90474578643192,120.27420291999924,20.048476176969707
22.904763532815544,120.27420137817292,20.048699915453792
22.904781275083774,120.27419981961792,20.04892341016978
22.90479901159046,120.27419824404075,20.049147229909895
22.904816743158676,120.27419665188165,20.049371009021996
22.904834468965348,120.27419504255366,20.049594625622035
22.90485218736432,120.27419341708395,20.049818404734133
22.90486989753251,120.27419177547254,20.050042183846234
22.904887601527616,120.2741901172792,20.050266044214368
22.904905296468865,120.27418844250393,20.050489863954486
22.904922983179336,120.2741867524674,20.0507136836946
22.90494066001287,120.27418504526197,20.0509374628067
22.904958326557928,120.2741833225018,20.05116136380285
22.904975983226052,120.2741815841869,20.05138514291495
22.904993628782627,120.2741798297303,20.0516090439111
22.905011263639185,120.27417805942548,20.05183290427923
22.90502888450342,120.27417627385941,20.052056927159427
22.9050464942561,120.27417447259187,20.05228078752756
22.905064090427995,120.27417265635655,20.052504526011646
22.905081673019104,120.27417082412627,20.052728386379776
22.90509924079481,120.2741689767815,20.05295244988799
22.90511679457819,120.27416711432221,20.053176269628107
22.905134333957708,120.27416523689517,20.05340012999624
22.905151856052587,120.27416334508733,20.05362403099239
22.90516936209745,120.27416143713778,20.053847891360522
22.905186852503828,120.27415951495419,20.054071873612703
22.905204324802494,120.27415757853655,20.054295733980833
22.905221778993443,120.27415562685765,20.054519634976984
22.90523921343052,120.27415366094472,20.05474365785718
22.90525663140604,120.27415168050425,20.054967558853328
22.905274027158455,120.27414968626995,20.055191378593445
22.905291404803155,120.27414767721463,20.05541511707753
22.90530876104783,120.27414565407202,20.05563930246979
22.905326095892477,120.27414361669534,20.05586308158189
22.905343409748635,120.27414156596508,20.056086982578037
22.90536070179323,120.27413950100076,20.056310802318155
22.9053779703801,120.27413742238937,20.05653466268629
22.90539521633233,120.27413532983742,20.05675852305442
22.90541243800376,120.27413322349165,20.056982383422554
22.905429634982852,120.27413110423251,20.05720612190664
22.905446806858066,120.27412897117955,20.057430063530802
22.90546395404094,120.27412682506647,20.05765388327092
22.90548107488532,120.27412466530633,20.057877581126988
22.905498170214287,120.27412249248609,20.05810136023909
22.90551523797014,120.27412030660572,20.058325058095157
22.90553227691826,120.27411810795874,20.05854879657924
22.905549289116355,120.2741158963984,20.05877269757539
22.905566272506718,120.27411367207144,20.05899627354741
22.905583227089355,120.2741114351246,20.05921997140348
22.905600150806567,120.2741091849709,20.059443669259547
22.905617045716053,120.2741069230778,20.059667407743632
22.905633909348573,120.27410464841805,20.059891146227717
22.905650741292593,120.27410236069821,20.060114762827755
22.905667541959655,120.27410006153244,20.06033825754374
22.905684309703595,120.274097750187,20.06056195539981
22.90570104452442,120.27409542636843,20.060785612627864
22.905717746833663,120.27409309081045,20.061008985459804
22.905734414162094,120.27409074351304,20.06123252080381
22.90575104774433,120.27408838403598,20.06145617803186
22.905767645111137,120.27408601296624,20.0616795508638
22.90578420790867,120.27408363015708,20.061903086207806
22.90580073449077,120.27408123619547,20.062126580923795
22.90581722403437,120.27407883020095,20.062349953755735
22.905833677362534,120.27407641334747,20.062573570355774
22.905850092006037,120.2740739849013,20.062796821303664
22.905866468787952,120.27407154515595,20.063020194135607
22.905882807708284,120.27406909440488,20.06324352633953
22.905899107120874,120.27406663308834,20.06346669603139
22.905915365379563,120.27406416017912,20.06369006886333
22.90593158330744,120.27406167670442,20.063913279183208
22.905947760904493,120.27405918251749,20.064136570759118
22.905963897347647,120.27405667732485,20.064359659194945
22.905979991813826,120.27405416186022,20.064582828886806
22.905996043479956,120.27405163583012,20.064805998578667
22.90601205234603,120.27404909952801,20.06502904638648
22.906028018412048,120.27404655280718,20.06525229733437
22.906043938385704,120.27404399566761,20.065475263886153
22.90605981473623,120.27404142854952,20.06569835232198
22.906075644994388,120.27403885115945,20.06592123761773
22.906091431629417,120.27403626437783,20.066144163541495
22.906107170525924,120.27403366703074,20.066367170721293
22.90612286333007,120.27403106058559,20.066590015389025
22.90613850839569,120.27402844401519,20.066812860056757
22.906154105722788,120.2740258179065,20.067035745352506
22.90616965531137,120.27402318167258,20.06725854939222
22.906185154692192,120.27402053648734,20.067481272175907
22.90620060468834,120.2740178820573,20.067704035587607
22.906216006945968,120.27401521852921,20.067926717743276
22.906231357349686,120.27401254604982,20.06814948115498
22.906246655076412,120.27400986373866,20.068372244566678
22.906261902595386,120.27400717247619,20.06859488609433
22.906277099906603,120.27400447270263,20.06881736510992
22.906292241248522,120.27400176353754,20.069040047265588
22.906307331559606,120.27399904556789,20.06926240439713
22.906322366724467,120.27399631982087,20.069485045924782
22.906337348389265,120.2739935846823,20.06970744368434
22.90635227490784,120.2739908414729,20.06992988207191
22.906367147926343,120.27398808975241,20.07015227983147
22.906381964152473,120.27398532966757,20.07037463696301
22.906396722763144,120.2739825612184,20.070596831582485
22.906411426227596,120.27397978499187,20.07081914808601
22.906426072076588,120.27397699996077,20.07104150521755
22.906440658663968,120.27397420773926,20.071263821721075
22.906455187635895,120.27397140730017,20.071485975712537
22.906469657346207,120.2739685990837,20.071708089075983
22.906484067794906,120.2739657835301,20.071930324323475
22.906498418158918,120.27396295946542,20.072152478314937
22.90651270761516,120.27396012835709,20.072374347910284
22.906526936163633,120.27395729049859,20.072596501901746
22.90654110298126,120.27395444383552,20.072818574637175
22.90655520642189,120.27395159086251,20.073040606744588
22.906569249777824,120.27394873040562,20.073262476339934
22.90658322893368,120.27394586275834,20.07348426467925
22.9065971422433,120.2739429880674,20.073706296786664
22.906610992999,120.27394010706652,20.073928247638047
22.90662477790846,120.27393721828828,20.074149995349348
22.906638499440916,120.27393432349358,20.07437190557271
22.906652153480984,120.27393142165523,20.074593653284012
22.906665739205582,120.2739285130667,20.074815319739283
22.906679261553176,120.27392559772802,20.075037148706613
22.906692714762226,120.27392267681311,20.075258693277835
22.906706099655803,120.27391974929478,20.075480359733103
22.90671941705699,120.27391681502627,20.075701904304324
22.906732665319627,120.27391387547503,20.07592353013158
22.906745842797562,120.27391092858664,20.07614515595883
22.90675895196003,120.27390797641553,20.076366578646002
22.906771988691634,120.27390501837469,20.076588204473257
22.90678495463854,120.27390205461089,20.076809708416462
22.90679784980074,120.27389908439041,20.077031212359667
22.906810670062846,120.27389610918067,20.07725251316279
22.906823421186402,120.2738931283947,20.077473854593933
22.90683609658679,120.27389014173903,20.077695439793168
22.906848697910164,120.27388714994736,20.077916903108356
22.90686122680268,120.27388415287295,20.078138082027436
22.906873678325862,120.27388115036905,20.078359423458576
22.906886055772034,120.2738781428759,20.078580683633685
22.906898358318113,120.2738751303935,20.078801984436808
22.906910583494863,120.27387211277511,20.07902312272787
22.90692273047921,120.27386909016745,20.07924430164695
22.90693480174038,120.27386606359774,20.07946560245007
22.906946793986073,120.27386303115833,20.079686821997164
22.906958707216283,120.27385999431662,20.079907797776162
22.906970543077165,120.2738569536596,20.08012897669524
22.90698229663025,120.27385390816008,20.080350155614315
22.906993971167854,120.27385085767129,20.080571090765297
22.907005565043818,120.27384780395417,20.08079218842834
22.907017078258146,120.27384474495432,20.08101324546337
22.907028509987754,120.27384168228588,20.081234261870385
22.907039856940337,120.27383861550865,20.081455278277396
22.907051124054355,120.27383554535635,20.081676213428377
22.907062306391346,120.27383247124197,20.08189722983539
22.907073406420544,120.27382939287206,20.08211808373034
22.907084420026557,120.27382631127382,20.082339100137354
