Latitude,Longitude,Altitude (m)
-49.933746,109.90732,11239.012
-49.91865,109.91346,11249.33
-49.903545,109.919624,11259.651
-49.88844,109.92577,11269.973
-49.86925,109.93205,11261.658
-49.859047,109.937874,11255.754
-49.84486,109.945526,11251.159
-49.830563,109.951416,11238.022
-49.820606,109.95731,11229.007
-49.809586,109.96448,11229.384
-49.796486,109.971176,11231.318
-49.782997,109.9776,11229.483
-49.771366,109.98458,11229.893
-49.758038,109.992294,11229.568
-49.74607,109.999504,11230.439
-49.732487,110.00696,11228.585
-49.720615,110.014,11227.208
-49.708797,110.02132,11230.004
-49.69485,110.02768,11228.75
-49.683228,110.03354,11228.028
-49.670307,110.03996,11227.412
-49.658005,110.04602,11227.071
-49.64541,110.052055,11226.832
-49.632866,110.057976,11226.741
-49.62026,110.06384,11226.753
-49.60763,110.069664,11226.863
-49.59498,110.07544,11227.055
-49.582306,110.08116,11227.312
-49.569614,110.08684,11227.614
-49.5569,110.092476,11227.956
-49.544186,110.09806,11228.324
-49.531452,110.10363,11228.717
-49.518723,110.10915,11229.121
-49.505928,110.11472,11229.594
-49.49313,110.12028,11230.076
-49.480328,110.12581,11230.559
-49.467503,110.13138,11231.076
-49.454674,110.13693,11231.582
-49.44187,110.14244,11232.067
-49.429066,110.14794,11232.547
-49.41625,110.153465,11233.043
-49.40344,110.158966,11233.533
-49.39062,110.16447,11234.023
-49.3778,110.16997,11234.513
-49.364967,110.17548,11235.013
-49.352135,110.18099,11235.514
-49.339317,110.18649,11235.997
-49.32649,110.192,11236.5
-49.31366,110.19752,11236.999
-49.300827,110.203026,11237.497
-49.28799,110.20854,11237.996
-49.275158,110.21405,11238.496
-49.26233,110.21957,11238.997
-49.2495,110.225075,11239.495
-49.236664,110.23058,11239.993
-49.223827,110.2361,11240.49
-49.211002,110.24161,11240.991
-49.198174,110.24712,11241.488
-49.18533,110.252625,11241.987
-49.1725,110.25815,11242.483
-49.159668,110.26365,11242.985
-49.146828,110.26916,11243.481
-49.134,110.274666,11243.98
-49.121166,110.28018,11244.477
-49.108334,110.28568,11244.976
-49.095505,110.29119,11245.474
-49.08267,110.29671,11245.974
-49.06983,110.302216,11246.471
-49.057,110.30772,11246.971
-49.044167,110.313225,11247.468
-49.031334,110.31874,11247.964
-49.018497,110.32424,11248.461
-49.00567,110.32975,11248.958
-48.99283,110.335266,11249.456
-48.98,110.340775,11249.953
-48.967167,110.34629,11250.45
-48.954327,110.35179,11250.949
-48.941494,110.357285,11251.447
-48.928658,110.3628,11251.94
-48.91582,110.3683,11252.439
-48.90299,110.37381,11252.9375
-48.890152,110.379326,11253.433
-48.877316,110.38483,11253.933
-48.86448,110.390335,11254.429
-48.85165,110.395836,11254.927
-48.838818,110.40135,11255.42
-48.825974,110.40685,11255.919
-48.81314,110.41236,11256.415
-48.80031,110.41786,11256.912
-48.787468,110.42336,11257.408
-48.774635,110.42887,11257.905
-48.7618,110.43439,11258.4
-48.748966,110.43989,11258.897
-48.73613,110.44539,11259.392
-48.72329,110.45089,11259.888
-48.710453,110.4564,11260.385
-48.697617,110.4619,11260.882
-48.684784,110.4674,11261.376
-48.67194,110.472916,11261.874
-48.659103,110.47841,11262.368
-48.646275,110.48391,11262.864
-48.633434,110.48941,11263.36
-48.620598,110.49493,11263.857
-48.607758,110.50043,11264.351
-48.59492,110.50593,11264.845
-48.58209,110.51144,11265.341
-48.569256,110.51694,11265.834
-48.556408,110.52244,11266.332
-48.543575,110.52794,11266.825
-48.530735,110.53344,11267.321
-48.517902,110.53894,11267.816
-48.50506,110.54446,11268.3125
-48.49223,110.54994,11268.808
-48.479385,110.55544,11269.301
-48.466843,110.56062,11269.97
-48.45408,110.56586,11270.579
-48.44225,110.57098,11274.854
-48.427197,110.57626,11272.452
-48.41596,110.58105,11270.588
-48.403133,110.5868,11269.478
-48.391304,110.59195,11270.505
-48.378387,110.59708,11271.495
-48.366226,110.60196,11274.16
-48.352512,110.6071,11274.081
-48.34067,110.612076,11275.276
-48.327663,110.61753,11276.774
-48.31462,110.622665,11276.295
-48.302937,110.62782,11278.667
-48.2898,110.63318,11281.64
-48.277008,110.63814,11284.417
-48.263653,110.64306,11284.417
-48.25151,110.64807,11284.667
-48.238808,110.65335,11284.905
-48.226414,110.6584,11285.205
-48.2139,110.663445,11285.486
-48.201435,110.66845,11285.792
-48.188965,110.67348,11286.121
-48.17652,110.67852,11286.496
-48.16407,110.68357,11286.907
-48.15162,110.68864,11287.353
-48.13917,110.69371,11287.831
-48.12673,110.69878,11288.333
-48.11429,110.70386,11288.85
-48.101837,110.70894,11289.389
-48.089386,110.714035,11289.933
-48.076946,110.7191,11290.478
-48.06448,110.724205,11291.049
-48.05202,110.7293,11291.62
-48.03956,110.7344,11292.189
-48.0271,110.739494,11292.756
-48.014637,110.74458,11293.325
-48.002182,110.74968,11293.89
-47.989716,110.75476,11294.458
-47.977257,110.75985,11295.024
-47.96479,110.76493,11295.589
-47.95232,110.77002,11296.157
-47.939857,110.7751,11296.723
-47.92739,110.7802,11297.281
-47.914932,110.785255,11297.841
-47.902462,110.790344,11298.405
-47.889988,110.795425,11298.973
-47.87752,110.8005,11299.54
-47.865055,110.80558,11300.103
-47.852577,110.81067,11300.673
-47.840115,110.81574,11301.237
-47.827644,110.82083,11301.806
-47.815178,110.825905,11302.369
-47.802708,110.830986,11302.936
-47.790234,110.83607,11303.502
-47.777763,110.841156,11304.065
-47.765293,110.84622,11304.632
-47.75282,110.8513,11305.201
-47.740353,110.856384,11305.765
-47.727886,110.861465,11306.331
-47.71541,110.86654,11306.896
-47.702938,110.87162,11307.462
-47.69047,110.8767,11308.027
-47.678005,110.88178,11308.587
-47.665527,110.88686,11309.157
-47.65306,110.891945,11309.723
-47.640587,110.897026,11310.286
-47.62812,110.90209,11310.852
-47.61565,110.90717,11311.416
-47.60318,110.91225,11311.981
-47.59071,110.91733,11312.547
-47.578236,110.92241,11313.112
-47.56577,110.927475,11313.674
-47.553284,110.93256,11314.239
-47.54082,110.93764,11314.807
-47.52835,110.94272,11315.369
-47.515877,110.947784,11315.934
-47.503414,110.952866,11316.497
-47.490936,110.95795,11317.0625
-47.478466,110.96302,11317.627
-47.465992,110.96809,11318.188
-47.453526,110.97317,11318.751
-47.44105,110.97825,11319.318
-47.428577,110.98332,11319.882
-47.416103,110.98839,11320.444
-47.403637,110.99347,11321.006
-47.39104,110.9984,11320.821
-47.378597,111.00333,11320.013
-47.366627,111.00829,11320.5625
-47.354374,111.013275,11322.703
-47.341892,111.01806,11325.83
-47.328568,111.02283,11326.723
-47.3163,111.027626,11327.535
-47.303444,111.03276,11327.594
-47.291058,111.03774,11327.296
-47.278866,111.042755,11328.032
-47.266533,111.04771,11330.131
-47.253273,111.05257,11330.044
-47.24097,111.05736,11329.208
-47.229134,111.062454,11330.97
-47.21577,111.067535,11330.76
-47.203857,111.07226,11331.049
-47.1913,111.07733,11332.004
-47.178604,111.0822,11332.895
-47.165966,111.087006,11333.775
-47.153267,111.09187,11334.625
-47.140594,111.096756,11335.464
-47.127907,111.10167,11336.287
-47.11523,111.10659,11337.102
-47.102547,111.1115,11337.895
-47.08987,111.11642,11338.679
-47.077183,111.121346,11339.451
-47.06451,111.12628,11340.21
-47.051826,111.13122,11340.964
-47.039146,111.136154,11341.711
-47.026463,111.141106,11342.453
-47.013794,111.14606,11343.196
-47.001118,111.151,11343.933
-46.988438,111.15595,11344.664
-46.97578,111.1609,11345.392
-46.963104,111.16585,11346.121
-46.950428,111.17081,11346.854
-46.937756,111.175766,11347.588
-46.925083,111.180725,11348.322
-46.912407,111.185684,11349.055
-46.899746,111.19064,11349.783
-46.887074,111.1956,11350.52
-46.8744,111.200584,11351.258
-46.86173,111.20554,11351.984
-46.849056,111.21052,11352.719
-46.836388,111.215485,11353.455
-46.823715,111.22046,11354.187
-46.811047,111.225426,11354.919
-46.798367,111.2304,11355.649
-46.7857,111.23536,11356.381
-46.773033,111.240326,11357.112
-46.760365,111.2453,11357.842
-46.74769,111.25027,11358.575
-46.735023,111.25524,11359.307
-46.722347,111.26021,11360.039
-46.70968,111.26517,11360.769
-46.697002,111.27014,11361.5
-46.684334,111.27511,11362.2295
-46.67167,111.28007,11362.961
-46.658985,111.28504,11363.693
-46.646317,111.29001,11364.422
-46.633648,111.29498,11365.15
-46.620975,111.29994,11365.885
-46.60831,111.30491,11366.613
-46.595634,111.30988,11367.347
-46.582966,111.31484,11368.072
-46.570297,111.31981,11368.804
-46.557617,111.32478,11369.532
-46.54494,111.32974,11370.266
-46.53228,111.33471,11370.991
-46.519608,111.33967,11371.722
-46.50693,111.34464,11372.452
-46.494263,111.3496,11373.183
-46.481583,111.35457,11373.913
-46.468914,111.35954,11374.642
-46.456245,111.3645,11375.371
-46.443577,111.36946,11376.101
-46.43091,111.37443,11376.829
-46.418232,111.37939,11377.557
-46.405552,111.38436,11378.285
-46.392887,111.38933,11379.015
-46.380215,111.39429,11379.745
-46.36754,111.39925,11380.469
-46.354874,111.404205,11381.2
-46.342197,111.40918,11381.929
-46.32953,111.41414,11382.658
-46.316257,111.41901,11380.77
-46.304787,111.42378,11381.51
-46.2916,111.42885,11381.9795
-46.279827,111.43344,11384.987
-46.266098,111.438324,11386.058
-46.25322,111.44293,11384.655
-46.241467,111.44789,11385.777
-46.228172,111.45297,11385.944
-46.215492,111.45766,11384.309
-46.20387,111.46246,11385.622
-46.190292,111.46743,11384.925
-46.17791,111.47201,11382.591
-46.166046,111.476906,11382.024
-46.153263,111.481834,11380.949
-46.142323,111.48642,11385.174
-46.127903,111.49116,11385.881
-46.116135,111.49532,11386.947
-46.103046,111.50028,11387.821
-46.090565,111.50497,11388.783
-46.07783,111.50973,11389.632
-46.065174,111.514404,11390.44
-46.05248,111.51911,11391.186
-46.039803,111.5238,11391.892
-46.02712,111.52851,11392.569
-46.01445,111.53322,11393.226
-46.001785,111.537926,11393.858
-45.98912,111.54264,11394.489
-45.97645,111.54735,11395.108
-45.96379,111.55207,11395.724
-45.951126,111.5568,11396.345
-45.938465,111.56153,11396.958
-45.925816,111.56627,11397.57
-45.913166,111.57099,11398.18
-45.900524,111.57573,11398.793
-45.887875,111.58048,11399.415
-45.875217,111.58522,11400.031
-45.862568,111.58998,11400.648
-45.849922,111.59473,11401.271
-45.837276,111.59949,11401.888
-45.824627,111.60424,11402.511
-45.81198,111.60901,11403.135
-45.799328,111.613785,11403.758
-45.786682,111.618546,11404.382
-45.77404,111.62331,11404.988
-45.761395,111.62807,11405.606
-45.748745,111.63283,11406.222
-45.7361,111.63759,11406.835
-45.723457,111.64235,11407.455
-45.71081,111.64711,11408.066
-45.69817,111.65187,11408.686
-45.68552,111.65663,11409.299
-45.67288,111.66139,11409.915
-45.660236,111.66615,11410.531
-45.647583,111.67091,11411.1455
-45.634945,111.675674,11411.762
-45.622303,111.680435,11412.375
-45.609653,111.685196,11412.989
-45.597008,111.68994,11413.6045
-45.584362,111.6947,11414.22
-45.57172,111.69946,11414.836
-45.559074,111.70422,11415.451
-45.54643,111.708984,11416.065
-45.53378,111.713745,11416.677
-45.521137,111.71849,11417.292
-45.50849,111.72325,11417.908
-45.49585,111.72801,11418.5205
-45.483204,111.73277,11419.137
-45.470562,111.73753,11419.749
-45.457912,111.742294,11420.361
-45.445263,111.74705,11420.976
-45.432617,111.75181,11421.589
-45.419975,111.75655,11422.205
-45.407326,111.761314,11422.816
-45.394688,111.766075,11423.431
-45.382034,111.77083,11424.044
-45.369392,111.77559,11424.654
-45.356747,111.78035,11425.27
-45.34411,111.78511,11425.884
-45.331455,111.789856,11426.498
-45.31881,111.79462,11427.108
-45.30617,111.79937,11427.721
-45.29352,111.80413,11428.336
-45.280876,111.808876,11428.943
-45.26864,111.81343,11430.885
-45.254715,111.8181,11428.428
-45.24247,111.82259,11423.469
-45.23107,111.827576,11420.815
-45.218987,111.832436,11419.467
-45.208805,111.83678,11426.694
-45.192127,111.841385,11422.795
-45.18322,111.84508,11424.525
-45.169765,111.85056,11429.089
-45.157818,111.85474,11436.524
-45.142323,111.85926,11436.124
-45.130634,111.86352,11435.077
-45.118847,111.86872,11438.947
-45.103825,111.873535,11435.839
-45.0923,111.87774,11431.165
-45.080284,111.88282,11428.097
-45.066895,111.88862,11420.316
-45.05645,111.89405,11413.652
-45.044716,111.900024,11407.441
-45.033676,111.9054,11401.869
-45.022358,111.91078,11396.691
-45.01114,111.91605,11391.95
-44.999878,111.92133,11387.565
-44.988594,111.92659,11383.497
-44.977283,111.931816,11379.674
-44.965935,111.93698,11376.034
-44.954548,111.94211,11372.53
-44.94312,111.94719,11369.118
-44.931652,111.95222,11365.773
-44.92016,111.95721,11362.459
-44.90862,111.96214,11359.18
-44.897045,111.967064,11355.918
-44.88546,111.97194,11352.652
-44.873848,111.97677,11349.387
-44.86224,111.981544,11346.091
-44.8506,111.98631,11342.819
-44.838943,111.99104,11339.534
-44.827293,111.99572,11336.236
-44.81565,112.00038,11332.93
-44.803967,112.005035,11329.643
-44.79229,112.009674,11326.361
-44.780617,112.01428,11323.068
-44.768932,112.01888,11319.791
-44.757233,112.023506,11316.525
-44.74554,112.02811,11313.253
-44.733837,112.032715,11310.001
-44.722134,112.03733,11306.749
-44.710423,112.04195,11303.495
-44.69872,112.046555,11300.24
-44.687008,112.05117,11296.985
-44.675304,112.055786,11293.73
-44.66359,112.0604,11290.4795
-44.651882,112.065025,11287.223
-44.640175,112.06964,11283.972
-44.62846,112.07424,11280.721
-44.616753,112.07887,11277.471
-44.605038,112.08349,11274.221
-44.593323,112.088104,11270.968
-44.581608,112.09273,11267.717
-44.569893,112.09734,11264.466
-44.55818,112.10196,11261.216
-44.546463,112.106575,11257.969
-44.534744,112.111206,11254.718
-44.52302,112.11582,11251.471
-44.511314,112.12044,11248.222
-44.49959,112.12507,11244.973
-44.487873,112.129684,11241.725
-44.47615,112.13431,11238.478
-44.464428,112.13892,11235.231
-44.452705,112.143555,11231.982
-44.440983,112.148186,11228.735
-44.429256,112.1528,11225.487
-44.417534,112.157425,11222.243
-44.40582,112.162056,11219.0
-44.394085,112.16669,11215.75
-44.38236,112.1713,11212.505
-44.37063,112.17593,11209.262
-44.35891,112.18056,11206.018
-44.34717,112.185196,11202.774
-44.335445,112.18981,11199.529
-44.323723,112.19444,11196.288
-44.31198,112.19908,11193.043
-44.300247,112.20371,11189.801
-44.288525,112.208336,11186.561
-44.276787,112.21297,11183.317
-44.26505,112.21759,11180.074
-44.253323,112.22222,11176.833
-44.238365,112.227234,11159.744
-44.22983,112.23214,11142.944
-44.218636,112.23829,11124.409
-44.210266,112.24324,11108.688
-44.201385,112.2482,11098.393
-44.193153,112.252495,11097.915
-44.18125,112.25669,11098.129
-44.168625,112.26053,11091.434
-44.15778,112.26509,11081.883
-44.146923,112.270424,11071.281
-44.135086,112.27558,11054.114
-44.12721,112.280334,11041.522
-44.1166,112.28539,11030.491
-44.10683,112.28941,11020.161
-44.09652,112.29357,11010.117
-44.085377,112.297806,10996.3955
-44.080498,112.301704,11002.215
-44.065365,112.30615,11004.965
-44.054935,112.30851,11007.369
-44.041897,112.31265,11008.605
-44.029854,112.31666,11009.393
-44.017345,112.32093,11009.402
-44.00494,112.32504,11008.785
-43.992447,112.32912,11007.538
-43.980015,112.33316,11005.78
-43.967617,112.33721,11003.61
-43.955276,112.34127,11001.136
-43.94299,112.345375,10998.441
-43.930767,112.34951,10995.594
-43.91856,112.35374,10992.689
-43.90639,112.35802,10989.728
-43.894268,112.36237,10986.735
-43.88218,112.36678,10983.726
-43.870136,112.37122,10980.7
-43.85816,112.37566,10977.652
-43.846207,112.38015,10974.608
-43.834263,112.384674,10971.591
-43.822327,112.38925,10968.591
-43.810402,112.39385,10965.602
-43.79848,112.398506,10962.634
-43.78658,112.40319,10959.66
-43.774685,112.40788,10956.676
-43.76279,112.41259,10953.6875
-43.75091,112.41732,10950.69
-43.739017,112.42207,10947.706
-43.727165,112.42677,10944.665
-43.71532,112.43148,10941.622
-43.70347,112.43618,10938.582
-43.691624,112.44089,10935.539
-43.67978,112.44558,10932.499
-43.667927,112.45029,10929.462
-43.65608,112.454994,10926.42
-43.644226,112.45971,10923.381
-43.63237,112.4644,10920.34
-43.62052,112.46911,10917.299
-43.608665,112.473816,10914.263
-43.596817,112.478516,10911.224
-43.58496,112.48324,10908.185
-43.573105,112.48793,10905.15
-43.56125,112.492645,10902.111
-43.549397,112.49735,10899.074
-43.537544,112.50206,10896.037
-43.525684,112.50676,10892.998
-43.513824,112.51148,10889.961
-43.50197,112.51618,10886.926
-43.4901,112.5209,10883.89
-43.478252,112.525604,10880.855
-43.46639,112.53031,10877.82
-43.45453,112.53503,10874.782
-43.442665,112.539734,10871.747
-43.430805,112.54445,10868.717
-43.41894,112.54916,10865.681
-43.40708,112.55387,10862.644
-43.395214,112.558586,10859.612
-43.38335,112.56329,10856.578
-43.371487,112.56801,10853.546
-43.359623,112.57272,10850.512
-43.347755,112.57744,10847.4795
-43.335884,112.582146,10844.45
-43.324028,112.58686,10841.413
-43.312157,112.59158,10838.382
-43.300278,112.5963,10835.352
-43.290085,112.60082,10839.568
-43.27564,112.60542,10839.512
-43.264206,112.60928,10839.476
-43.252163,112.614044,10842.722
-43.23916,112.61855,10845.968
-43.226112,112.62287,10847.699
-43.213406,112.62739,10849.41
-43.200138,112.6321,10849.562
-43.18836,112.63666,10852.606
-43.17478,112.64137,10854.891
-43.16208,112.645706,10856.967
-43.14897,112.65035,10858.718
-43.136074,112.65501,10860.319
-43.12314,112.659744,10861.749
-43.110252,112.66448,10863.055
-43.09739,112.669266,10864.256
-43.084545,112.674065,10865.378
-43.071747,112.6789,10866.439
-43.05897,112.68378,10867.466
-43.04621,112.68867,10868.466
-43.03349,112.693596,10869.449
-43.020775,112.69855,10870.423
-43.008087,112.70353,10871.388
-42.9954,112.70852,10872.353
-42.982746,112.71355,10873.319
-42.970085,112.71857,10874.281
-42.958775,112.72352,10880.868
-42.94402,112.72858,10883.704
-42.930565,112.73321,10881.219
-42.9172,112.738625,10873.367
-42.90745,112.74414,10872.246
-42.89411,112.74979,10870.584
-42.882114,112.75435,10867.306
-42.87101,112.75933,10867.813
-42.859707,112.76435,10874.614
-42.84558,112.769104,10878.383
-42.832787,112.77355,10879.574
-42.820267,112.778755,10881.1455
-42.806423,112.78409,10878.027
-42.79631,112.78907,10881.043
-42.78025,112.79456,10874.0625
-42.77178,112.798965,10874.186
-42.75761,112.80477,10873.098
-42.746838,112.80899,10874.593
-42.73369,112.81389,10875.525
-42.721542,112.81842,10876.607
-42.70894,112.8233,10877.57
-42.696507,112.82812,10878.544
-42.683987,112.833,10879.453
-42.671474,112.83784,10880.297
-42.65894,112.84269,10881.08
-42.646416,112.84753,10881.795
-42.633884,112.85235,10882.467
-42.62136,112.85719,10883.103
-42.60884,112.862015,10883.711
-42.59634,112.866844,10884.277
-42.583836,112.87167,10884.843
-42.57132,112.87652,10885.415
-42.558792,112.88139,10886.002
-42.546295,112.88626,10886.566
-42.533787,112.89113,10887.129
-42.52128,112.89601,10887.698
-42.508774,112.900894,10888.254
-42.496307,112.905754,10888.797
-42.48382,112.91063,10889.348
-42.471336,112.9155,10889.907
-42.45885,112.92038,10890.469
-42.446354,112.92527,10891.047
-42.433876,112.93015,10891.6045
-42.421375,112.93506,10892.187
-42.40889,112.939964,10892.754
-42.396408,112.944855,10893.318
-42.38391,112.94975,10893.883
-42.371433,112.95464,10894.44
-42.35895,112.95953,10894.997
-42.34647,112.96444,10895.558
-42.33399,112.96934,10896.118
-42.32151,112.97423,10896.678
-42.309025,112.97912,10897.234
-42.296547,112.98402,10897.795
-42.28407,112.98891,10898.3545
-42.271584,112.9938,10898.911
-42.259098,112.998695,10899.472
-42.24662,113.003586,10900.028
-42.23414,113.00848,10900.589
-42.221653,113.013374,10901.146
-42.209167,113.01826,10901.706
-42.19669,113.023155,10902.262
-42.18422,113.02804,10902.821
-42.171726,113.032936,10903.38
-42.159245,113.03783,10903.938
-42.146763,113.04272,10904.497
-42.13429,113.0476,10905.053
-42.121807,113.0525,10905.611
-42.109318,113.05739,10906.171
-42.096844,113.06228,10906.727
-42.08436,113.06718,10907.285
-42.071877,113.07206,10907.843
-42.0594,113.07695,10908.397
-42.046913,113.08184,10908.955
-42.034435,113.08672,10909.514
-42.021957,113.09162,10910.07
-42.00947,113.09651,10910.626
-41.996994,113.101395,10911.186
-41.98451,113.106285,10911.741
-41.972027,113.11117,10912.299
-41.95955,113.11606,10912.8545
-41.947075,113.12094,10913.41
-41.934586,113.12584,10913.968
-41.92211,113.13072,10914.525
-41.909626,113.13561,10915.079
-41.897152,113.1405,10915.638
-41.88467,113.145386,10916.192
-41.873203,113.15009,10921.063
