Latitude,Longitude,Altitude (m)
-37.89372897850484,132.53449385289974,12026.710670471191
-37.88218306607286,132.53167217211626,12027.069660186768
-37.87065218738103,132.52881565576752,12027.433010101318
-37.859113791819134,132.5259591394188,12027.793453216553
-37.847575396257234,132.5231026230701,12028.155349731445
-37.83605203443548,132.52028094228658,12028.517246246338
-37.82452115574365,132.51749409706832,12028.877689361572
-37.81297524331168,132.51460274515435,12029.241039276123
-37.80145939836,132.51179848215347,12029.601482391357
-37.789913485928025,132.50894196580475,12029.964832305908
-37.77838636567124,132.50610286723864,12030.328182220459
-37.76685548697941,132.50328118645513,12030.69153213501
-37.755320849852545,132.50045950567164,12031.05488204956
-37.74379748803079,132.49763782488816,12031.418231964111
-37.732266609338964,132.49481614410465,12031.78303527832
-37.7207319722121,132.49199446332116,12032.14783859253
-37.70920485195531,132.48919020032028,12032.514095306396
-37.697681490133554,132.4863859373194,12032.87453842163
-37.686150611441725,132.48356425653589,12033.242248535156
-37.67461597431487,132.4806554868393,12033.608505249023
-37.663096370928145,132.4779208949689,12033.970401763916
-37.65157300910639,132.47513404975064,12034.341018676758
-37.64004964728464,132.47234720453235,12034.705821990967
-37.62851876859281,132.4695603593141,12035.070625305176
-37.61700292364113,132.46675609631322,12035.438335418701
-37.60547580338434,132.4639169977471,12035.806045532227
-37.593952441562585,132.46111273474622,12036.172302246094
-37.58242532130579,132.45830847174534,12036.541465759277
-37.57090947635411,132.4555738798749,12036.909175872803
-37.559374839227246,132.452769616874,12037.27543258667
-37.54785523584053,132.44998277165575,12037.643142700195
-37.53633939088885,132.44719592643747,12038.015213012695
-37.52482354593717,132.4443916634366,12038.380016326904
-37.513307700985486,132.44165707156617,12038.752086639404
-37.501784339163734,132.43890506191315,12039.11979675293
-37.490260977341975,132.43611821669487,12039.490413665771
-37.478737615520224,132.43333137147658,12039.861030578613
-37.46722928743861,132.43056194404093,12040.230194091797
-37.4557096840519,132.4278273521705,12040.603717803955
-37.44419759753525,132.42504050695226,12040.97142791748
-37.43268175258357,132.4222884972992,12041.34349822998
-37.42116214919685,132.41948423429832,12041.71556854248
-37.40965006268021,132.4167496424279,12042.086185455322
-37.3981417345986,132.41399763277485,12042.45970916748
-37.38662588964692,132.41124562312183,12042.830326080322
-37.37510252782516,132.40851103125138,12043.20384979248
-37.36359419974356,132.4057938571636,12043.574466705322
-37.352089630096984,132.40302442972794,12043.94799041748
-37.34057002671027,132.40025500229228,12044.321514129639
-37.32906169862866,132.39752041042183,12044.693584442139
-37.31755337054705,132.3947684007688,12045.070014953613
-37.30605255933551,132.39208606224622,12045.442085266113
-37.29453671438383,132.38933405259317,12045.818515777588
-37.28302838630223,132.38658204294015,12046.192039489746
-37.27152381665565,132.38386486885233,12046.567016601562
-37.260026763879154,132.38118253032974,12046.943447113037
-37.24851091892747,132.37848277402455,12047.318424224854
-37.23700259084586,132.37567851102366,12047.694854736328
-37.22550177963433,132.3729265013706,12048.069831848145
-37.21399720998775,132.37024416284805,12048.447715759277
-37.202492640341184,132.36757924210806,12048.822692871094
-37.19098807069461,132.36487948580287,12049.202030181885
-37.17949101791811,132.36216231171505,12049.57846069336
-37.167978931401464,132.35944513762726,12049.953437805176
-37.15648563706,132.35674538132204,12050.335681915283
-37.14498106741343,132.35401078945162,12050.7106590271
-37.1334802562019,132.35132845092903,12051.088542938232
-37.1219832034254,132.3485938590586,12051.469333648682
-37.11048239221386,132.34596377388388,12051.848670959473
-37.09898533943736,132.34324659979606,12052.228008270264
-37.0874920450959,132.3405990968387,12052.605892181396
-37.07598747544933,132.3378819227509,12052.985229492188
-37.06450169797794,132.33521700201092,12053.364566802979
-37.05299712833137,132.33249982792313,12053.746810913086
-37.04150383398991,132.3299045783136,12054.126148223877
-37.030018056518514,132.32716998644318,12054.505485534668
-37.018521003742016,132.32443539457276,12054.887729644775
-37.00702395096552,132.32182272718063,12055.268520355225
-36.99553441505909,132.31917522422327,12055.65221786499
-36.98403736228259,132.31649288570068,12056.03300857544
-36.9725515848112,132.3138105471781,12056.416706085205
-36.96105829046974,132.31114562643813,12056.798950195312
-36.94957251299835,132.3085155412634,12057.18119430542
-36.938075460221846,132.30586803830604,12057.566345214844
-36.92658968275046,132.30315086421822,12057.947135925293
-36.91511518058418,132.30055561460873,12058.332286834717
-36.90361812780768,132.29789069386874,12058.71743774414
-36.892128591901255,132.29517351978092,12059.101135253906
-36.88064281442986,132.29261310573665,12059.484832763672
-36.86915703695848,132.2899830205619,12059.869983673096
-36.857671259487084,132.28735293538716,12060.25513458252
-36.84619299888577,132.2847054324298,12060.640285491943
-36.83471097984941,132.28205792947244,12061.026889801025
-36.823225202378026,132.27939300873248,12061.41204071045
-36.811746941776704,132.27685001247082,12061.798645019531
-36.800272439610424,132.27416767394823,12062.18815612793
-36.78879417900911,132.27152017099087,12062.573307037354
-36.777308401537724,132.26890750359874,12062.959911346436
-36.76583389937144,132.26631225398924,12063.349422454834
-36.754351880335086,132.26364733324928,12063.737480163574
-36.74287361973377,132.26103466585715,12064.125537872314
-36.73140287600253,132.25843941624763,12064.512142181396
-36.719917098531134,132.25584416663813,12064.901653289795
-36.70845011323493,132.25319666368077,12065.291164398193
-36.69696433576354,132.25061883185387,12065.68212890625
-36.68549735046733,132.24804100002697,12066.068733215332
-36.674026606736085,132.2453934970696,12066.459697723389
-36.66255586300484,132.24286791859055,12066.849208831787
-36.65107384396849,132.24027266898105,12067.240173339844
-36.639610617107316,132.2376425838063,12067.6311378479
-36.62814363181111,132.23508216976202,12068.022102355957
-36.61666537120979,132.2324869201525,12068.413066864014
-36.60520590278366,132.229891670543,12068.805484771729
-36.593735159052414,132.2273312564987,12069.196449279785
-36.58226441532117,132.22477084245443,12069.5888671875
-36.57080494689504,132.22219301062754,12069.981285095215
-36.55934172003386,132.21965001436584,12070.375156402588
-36.547878493172696,132.2170373469737,12070.769027709961
-36.53641150787649,132.21449435071204,12071.161445617676
-36.524952039450355,132.21191651888515,12071.556770324707
-36.51348881258918,132.20933868705825,12071.949188232422
-36.50202934416305,132.20679569079658,12072.344512939453
-36.490558600431804,132.20421785896968,12072.738384246826
-36.47909913200567,132.20170969827325,12073.135162353516
-36.46764342201457,132.19913186644635,12073.529033660889
-36.45618771202347,132.19662370574991,12073.92435836792
-36.444724485162304,132.19406329170562,12074.32113647461
-36.43326125830113,132.19150287766135,12074.717914581299
-36.4218130651801,132.18897729918228,12075.11323928833
-36.41035735518901,132.18648655626845,12075.511470794678
-36.39890916206798,132.18390872444155,12075.908248901367
-36.38744593520681,132.18140056374511,12076.305027008057
-36.37599398365075,132.17882273191822,12076.701805114746
-36.36454954896476,132.17631457122178,12077.101490020752
-36.35309383897366,132.17384124609057,12077.4997215271
-36.34163812898257,132.17126341426365,12077.897953033447
-36.33018993586154,132.16879008913244,12078.296184539795
-36.318741742740514,132.166281928436,12078.6958694458
-36.30730106648956,132.16373893217434,12079.094100952148
-36.29585287336854,132.1612307714779,12079.49669265747
-36.28440468024751,132.15872261078147,12079.894924163818
-36.272956487126486,132.15623186786763,12080.29751586914
-36.26150829400546,132.1537237071712,12080.695747375488
-36.2500676177545,132.15119812869213,12081.09833908081
-36.23862318306852,132.14872480356092,12081.498023986816
-36.22718250681756,132.14619922508186,12081.900615692139
-36.21573431369654,132.14377815329848,12082.303207397461
-36.20429739588062,132.14130482816728,12082.704345703125
-36.1928492027596,132.1387618319056,12083.108390808105
-36.18141604337872,132.1363233423396,12083.50952911377
-36.16997536712777,132.13381518164317,12083.915027618408
-36.158545966181926,132.1313766920772,12084.319072723389
-36.14710528993097,132.128903366946,12084.721664428711
-36.135668372115056,132.12637778846693,12085.125709533691
-36.12423521273418,132.12393929890095,12085.53120803833
-36.112798294918264,132.12148339155235,12085.936706542969
-36.101372652407456,132.1189926486385,12086.337844848633
-36.08994325146161,132.1165367412899,12086.74479675293
-36.07849881677562,132.1140808339413,12087.151748657227
-36.06706941582978,132.11165976215796,12087.555793762207
-36.055640014883934,132.10918643702672,12087.964199066162
-36.04421061393809,132.10674794746075,12088.368244171143
-36.03278497142728,132.10427462232954,12088.778102874756
-36.02135557048144,132.10187096832877,12089.185054779053
-36.009918652665526,132.09939764319756,12089.590553283691
-35.998508043894866,132.09699398919682,12090.000411987305
-35.98707488451399,132.09455549963081,12090.407363891602
-35.97565675887326,132.09215184563007,12090.817222595215
-35.96422359949237,132.08971335606407,12091.22562789917
-35.95279795698157,132.0872748664981,12091.634033203125
-35.94137983134083,132.08483637693212,12092.043891906738
-35.9299617057001,132.08245014071397,12092.453750610352
-35.918543580059364,132.08001165114797,12092.863609313965
-35.90712545441863,132.07760799714723,12093.274921417236
-35.895707328777895,132.07518692536385,12093.686233520508
-35.8842929615722,132.0727832713631,12094.094638824463
-35.872878594366505,132.07037961736233,12094.507404327393
-35.861460468725774,132.0679759633616,12094.918716430664
-35.85004985995511,132.0655374737956,12095.330028533936
-35.83863549274941,132.06318607314267,12095.744247436523
-35.827221125543716,132.0607301657941,12096.157012939453
-35.81581427520809,132.05836134735856,12096.568325042725
-35.80439239113232,132.05599252892304,12096.982543945312
-35.792989299231735,132.0536237104875,12097.3967628479
-35.78158244889611,132.05122005648676,12097.808074951172
-35.770183115430555,132.0488512380512,12098.223747253418
-35.758772506659895,132.0464824196157,12098.640872955322
-35.747354381019164,132.0441484367454,12099.052185058594
-35.735958805988645,132.04177961830985,12099.46785736084
-35.724548197217985,132.0393759643091,12099.883529663086
-35.71315262218747,132.03700714587356,12100.299201965332
-35.70174953028688,132.03463832743805,12100.714874267578
-35.69034643838629,132.03233918013296,12101.130546569824
-35.67894334648571,132.02993552613222,12101.549125671387
-35.66754777145519,132.0276015432619,12101.96770477295
-35.65614467955461,132.02526756039163,12102.381923675537
-35.64474910452409,132.02289874195608,12102.801956176758
-35.633353529493576,132.0205647590858,12103.219081878662
-35.62195795446306,132.01819594065026,12103.637660980225
-35.610562379432544,132.01586195777995,12104.054786682129
-35.5991743212721,132.01351055712703,12104.473365783691
-35.58777874624159,132.01119399203935,12104.89485168457
-35.57638317121107,132.0088948447343,12105.313430786133
-35.56498759618056,132.006560861864,12105.732009887695
-35.553599538020116,132.0042442967763,12106.152042388916
-35.54220772142464,132.001910313906,12106.574981689453
-35.53082718013427,131.99962858438354,12106.995014190674
-35.51943536353879,131.99731201929586,12107.415046691895
-35.50805106381338,131.99499545420818,12107.83943939209
-35.496674280958054,131.9926963069031,12108.25947189331
-35.48528622279761,131.99036232403282,12108.682411193848
-35.47390568150724,131.98808059451034,12109.103897094727
-35.46251010647673,131.98578144720528,12109.526836395264
-35.45113708205643,131.98351713546543,12109.9497756958
-35.43975654076606,131.98120057037775,12110.374168395996
-35.42837599947569,131.9789362586379,12110.798561096191
-35.4170029750554,131.97665452911545,12111.221500396729
-35.40561867532999,131.97430312846254,12111.647346496582
-35.39424940934473,131.9720388167227,12112.068832397461
-35.38286886805436,131.96977450498284,12112.49758529663
-35.3714996020691,131.96747535767778,12112.923431396484
-35.36013033608384,131.9651936281553,12113.34782409668
-35.34874979479347,131.96298156976331,12113.775123596191
-35.337384287243246,131.96071725802346,12114.199516296387
-35.32601126282295,131.95847036406624,12114.626815795898
-35.31464199683769,131.9561886345438,12115.05411529541
-35.303280247722505,131.95397657615177,12115.481414794922
-35.29189970643213,131.95169484662932,12115.910167694092
-35.280537957316945,131.94950020601993,12116.337467193604
-35.26917620820176,131.94718364093225,12116.767673492432
-35.25780318378146,131.94495416475763,12117.194972991943
-35.246452709971386,131.942724688583,12117.623725891113
-35.23508720242116,131.94049521240842,12118.052478790283
-35.223717936435904,131.93821348288594,12118.482685089111
-35.21236370419079,131.93601884227655,12118.91289138794
-35.20100571351064,131.93382420166716,12119.343097686768
-35.189647722830486,131.93155988992734,12119.773303985596
-35.17828973215034,131.92933041375272,12120.204963684082
-35.16693174147019,131.92713577314333,12120.63516998291
-35.155577509225076,131.92494113253395,12121.068283081055
-35.14422327697996,131.92272907414196,12121.498489379883
-35.13288032003995,131.92051701574994,12121.933055877686
-35.12152608779484,131.91828753957532,12122.36616897583
-35.11017185554973,131.91609289896596,12122.797828674316
-35.09882138173965,131.91389825835657,12123.233848571777
-35.08747090792957,131.91170361774718,12123.664054870605
-35.07612419255453,131.9095089771378,12124.100074768066
-35.064781235614525,131.90734917209363,12124.53464126587
-35.053434520239485,131.9051371137016,12124.967754364014
-35.04209908016956,131.90295989087485,12125.403774261475
-35.030748606359474,131.9008000858307,12125.838340759277
-35.01940564941947,131.89864028078654,12126.275814056396
-35.00806269247946,131.89648047574238,12126.7103805542
-34.9967234939745,131.89425099956776,12127.14640045166
-34.98538429546953,131.89216086565406,12127.582420349121
-34.974041338529524,131.88991397169684,12128.01989364624
-34.962702140024554,131.88777158443528,12128.45736694336
-34.951381733694774,131.88564661495636,12128.894840240479
-34.940042535189804,131.88345197434697,12129.333766937256
-34.92870709511987,131.88132700486804,12129.772693634033
-34.91737917192001,131.87923687095434,12130.21162033081
-34.90604373185008,131.87704223034495,12130.650547027588
-34.89471580865022,131.87491726086603,12131.089473724365
-34.88338788545036,131.87275745582187,12131.528400421143
-34.87205244538043,131.87063248634294,12131.96732711792
-34.860739555920716,131.868507516864,12132.407707214355
-34.84941163272086,131.8663825473851,12132.848087310791
-34.838083709521,131.86427499568876,12133.289920806885
-34.826755786321144,131.86216744399243,12133.731754302979
-34.81543537999136,131.86000763894828,12134.172134399414
-34.80411497366157,131.85791750503458,12134.613967895508
-34.79279456733178,131.85582737112088,12135.055801391602
-34.78147791943703,131.85373723720718,12135.500541687012
-34.770161271542285,131.85159484994563,12135.943828582764
-34.7588408652125,131.84953955159716,12136.385662078857
-34.74752797575278,131.84741458211823,12136.831855773926
-34.73621132785804,131.84530703042194,12137.27368927002
-34.72489843839832,131.8432168965082,12137.719882965088
-34.713589307373645,131.8411093448119,12138.161716461182
-34.70226890104386,131.83903662868082,12138.609363555908
-34.69097104532429,131.83698133033235,12139.05265045166
-34.67965815586458,131.83490861420125,12139.498844146729
-34.66834526640486,131.83283589807016,12139.946491241455
-34.6570474106853,131.83071092859123,12140.391231536865
-34.645742038095655,131.828690465808,12140.838878631592
-34.634429148635945,131.82663516745953,12141.286525726318
-34.623138809786454,131.82457986911106,12141.732719421387
-34.61183343719681,131.82250715297997,12142.181819915771
-34.60052806460717,131.8204692724141,12142.629467010498
-34.589226450452564,131.81841397406563,12143.078567504883
-34.57793235316804,131.81639351128237,12143.52621459961
-34.56664201431854,131.8143382129339,12143.976768493652
-34.55534415859898,131.81228291458544,12144.424415588379
-34.54404630287941,131.81024503401957,12144.874969482422
-34.532759722464945,131.8081723178885,12145.325523376465
-34.52146186674538,131.80618669067047,12145.776077270508
-34.51016776946085,131.80416622788724,12146.225177764893
-34.49887743061136,131.80214576510397,12146.678638458252
-34.48759460863194,131.80005563119028,12147.129192352295
-34.476308028217474,131.79807000397227,12147.581199645996
-34.46501768936798,131.79611921231947,12148.031753540039
-34.45372359208345,131.794063913971,12148.486667633057
-34.442455803844176,131.7920957045356,12148.938674926758
-34.431165464994685,131.79009265953496,12149.392135620117
-34.419890159885334,131.78810703231696,12149.845596313477
-34.40860357947088,131.78613882288155,12150.299057006836
-34.39732451592649,131.78406610675046,12150.755424499512
-34.38604921081714,131.78211531509768,12151.207431793213
-34.37476638883772,131.78012968787965,12151.663799285889
-34.36349108372837,131.77810922509642,12152.118713378906
-34.35221577861902,131.77615843344364,12152.573627471924
-34.340940473509676,131.77419022400824,12153.031448364258
-34.32968020214047,131.77222201457283,12153.484909057617
-34.31840489703112,131.7702363873548,12153.94418334961
-34.30712959192177,131.76828559570203,12154.399097442627
-34.29586932055257,131.76633480404922,12154.85837173462
-34.284601532313296,131.76438401239645,12155.314739227295
-34.27334501937913,131.76243322074365,12155.774013519287
-34.26207347270481,131.76048242909087,12156.23328781128
-34.25081320133561,131.7585490552207,12156.689655303955
-34.2395416546613,131.75661568135052,12157.150382995605
-34.228292658597205,131.75466488969772,12157.60820388794
-34.21702487035793,131.75273151582755,12158.06893157959
-34.205768357423764,131.7508329775226,12158.528205871582
-34.19450808605456,131.74888218586983,12158.988933563232
-34.18325908999047,131.74696622978226,12159.451114654541
-34.17199881862127,131.74501543812949,12159.908935546875
-34.16074606412214,131.74311689982454,12160.372570037842
-34.14949706805805,131.74118352595437,12160.833297729492
-34.13824055512388,131.73930240543203,12161.2954788208
-34.12699531749482,131.73738644934446,12161.759113311768
-34.11575007986576,131.73552274660474,12162.221294403076
-34.10450108380167,131.7335197016041,12162.684928894043
-34.093252087737575,131.73172566999486,12163.147109985352
-34.08200685010852,131.72979229612469,12163.612197875977
-34.070769129349536,131.72794601116757,12164.077285766602
-34.05952389172048,131.72603005508003,12164.53946685791
-34.04827865409142,131.7241489345577,12165.007461547852
-34.03705596707258,131.72223297847015,12165.471096038818
-34.02581072944353,131.72042152907827,12165.936183929443
-34.01457300868454,131.7184881552081,12166.401271820068
-34.00334280479563,131.7166941235988,12166.86926651001
-33.99210132560161,131.71477816751127,12167.335807800293
-33.98087488014774,131.71293188255416,12167.802349090576
-33.96963715938875,131.71108559759705,12168.271797180176
-33.95840695549984,131.70920447707473,12168.7368850708
-33.947184268481,131.7073233565524,12169.2063331604
-33.93595406459209,131.70558157829097,12169.67578125
-33.92472386070318,131.70370045776866,12170.140869140625
-33.913508690554416,131.70183675502892,12170.613224029541
-33.9022784866655,131.6999730522892,12171.079765319824
-33.891055799646665,131.69819643846256,12171.55212020874
