Latitude,Longitude,Altitude (m)
-21.40138,165.59183,11572.372
-21.41874,165.57799,11572.019
-21.436077,165.56412,11571.667
-21.453442,165.55023,11571.311
-21.4708,165.53636,11570.955
-21.488152,165.52254,11570.602
-21.505507,165.50873,11570.247
-21.52286,165.49483,11569.889
-21.540213,165.48102,11569.535
-21.557564,165.46732,11569.177
-21.574917,165.45348,11568.821
-21.592268,165.43967,11568.465
-21.609623,165.42583,11568.109
-21.626974,165.41202,11567.753
-21.64433,165.39824,11567.3955
-21.661684,165.38441,11567.037
-21.679037,165.37059,11566.685
-21.696386,165.35683,11566.328
-21.713741,165.34296,11565.972
-21.731096,165.32922,11565.616
-21.748447,165.3154,11565.258
-21.765802,165.30164,11564.903
-21.783155,165.2878,11564.547
-21.800507,165.27397,11564.187
-21.817858,165.26022,11563.83
-21.835218,165.24644,11563.477
-21.852568,165.23264,11563.118
-21.870344,165.21355,11563.189
-21.886475,165.21237,11562.161
-21.904203,165.19843,11561.296
-21.921343,165.18463,11560.342
-21.937937,165.1776,11558.846
-21.956186,165.15265,11558.32
-21.973284,165.13448,11557.974
-21.990421,165.12067,11557.638
-22.007763,165.1064,11557.301
-22.025091,165.09164,11556.968
-22.042383,165.07686,11556.632
-22.059662,165.0624,11556.3
-22.076948,165.04791,11555.97
-22.094227,165.03352,11555.641
-22.11152,165.0191,11555.311
-22.128805,165.00479,11554.981
-22.146086,164.9905,11554.65
-22.163374,164.97617,11554.324
-22.180664,164.96194,11553.993
-22.19795,164.9476,11553.667
-22.215239,164.9335,11553.337
-22.232533,164.91925,11553.007
-22.249823,164.90495,11552.677
-22.267113,164.89076,11552.347
-22.284405,164.87653,11552.0205
-22.301695,164.86227,11551.69
-22.318987,164.84813,11551.361
-22.336283,164.834,11551.029
-22.353567,164.81975,11550.697
-22.370857,164.8056,11550.373
-22.388153,164.79134,11550.044
-22.405449,164.77716,11549.718
-22.42275,164.76295,11549.386
-22.440056,164.74883,11549.051
-22.457348,164.73471,11548.718
-22.474642,164.7208,11548.379
-22.491938,164.70662,11548.043
-22.509233,164.69272,11547.708
-22.526524,164.67847,11547.371
-22.543816,164.66444,11547.034
-22.561115,164.6504,11546.699
-22.57841,164.63643,11546.361
-22.595705,164.62238,11546.028
-22.612999,164.60834,11545.689
-22.630295,164.59425,11545.354
-22.647585,164.58018,11545.019
-22.66488,164.56624,11544.681
-22.682178,164.55215,11544.345
-22.699469,164.53806,11544.009
-22.716766,164.52402,11543.672
-22.73406,164.51006,11543.334
-22.751352,164.49602,11542.995
-22.76865,164.48196,11542.66
-22.785948,164.4679,11542.324
-22.803238,164.4539,11541.986
-22.820532,164.43982,11541.652
-22.837826,164.42577,11541.311
-22.85512,164.41179,11540.972
-22.872416,164.3978,11540.637
-22.88971,164.38371,11540.301
-22.907003,164.36967,11539.965
-22.924295,164.3557,11539.63
-22.941292,164.34416,11539.037
-22.959368,164.31993,11539.284
-22.975384,164.31567,11538.586
-22.993298,164.29668,11538.425
-23.010794,164.27579,11538.691
-23.027866,164.26047,11539.008
-23.044312,164.25449,11538.672
-23.061426,164.24231,11538.213
-23.078423,164.22762,11537.753
-23.095278,164.21338,11537.295
-23.112148,164.1995,11536.835
-23.129045,164.1856,11536.373
-23.145933,164.1716,11535.913
-23.16283,164.15744,11535.451
-23.179712,164.1434,11534.989
-23.196602,164.12917,11534.527
-23.213482,164.11497,11534.064
-23.230364,164.10085,11533.606
-23.247244,164.08652,11533.143
-23.264116,164.07228,11532.683
-23.280993,164.05809,11532.222
-23.29787,164.04367,11531.759
-23.31474,164.02942,11531.305
-23.331617,164.01514,11530.839
-23.348484,164.00093,11530.381
-23.365349,163.98659,11529.921
-23.38222,163.97217,11529.46
-23.399084,163.95787,11529.002
-23.415953,163.94356,11528.542
-23.432821,163.92928,11528.084
-23.44968,163.9149,11527.627
-23.466549,163.9006,11527.168
-23.48341,163.88629,11526.713
-23.500261,163.87196,11526.252
-23.51712,163.8577,11525.801
-23.533981,163.84314,11525.343
-23.55085,163.82881,11524.892
-23.567705,163.81433,11524.438
-23.58457,163.79991,11523.985
-23.601423,163.78543,11523.533
-23.618288,163.77103,11523.075
-23.63515,163.7567,11522.623
-23.652014,163.74237,11522.172
-23.668873,163.7278,11521.716
-23.685736,163.71347,11521.261
-23.702593,163.69899,11520.811
-23.719456,163.68459,11520.352
-23.736317,163.67023,11519.899
-23.75318,163.65572,11519.444
-23.770037,163.64137,11518.993
-23.786898,163.62692,11518.539
-23.803766,163.61255,11518.084
-23.820631,163.59808,11517.628
-23.837482,163.58368,11517.173
-23.854343,163.56926,11516.717
-23.871204,163.55493,11516.265
-23.888063,163.54047,11515.8125
-23.904926,163.5261,11515.357
-23.921791,163.51175,11514.903
-23.938648,163.49733,11514.445
-23.955511,163.48288,11513.991
-23.972376,163.46852,11513.537
-23.989231,163.45416,11513.083
-24.006094,163.4397,11512.628
-24.023247,163.42084,11512.533
-24.04099,163.39366,11513.457
-24.05759,163.37846,11514.336
-24.073551,163.3774,11514.161
-24.09983,163.25714,11522.731
-24.116982,163.20938,11532.914
-24.135048,163.19728,11543.177
-24.154703,163.18158,11553.432
-24.174202,163.16287,11563.698
-24.19339,163.14676,11573.9795
-24.212538,163.13353,11584.264
-24.23176,163.12193,11594.546
-24.251028,163.1116,11604.813
-24.270344,163.10237,11615.07
-24.28969,163.09409,11625.313
-24.309067,163.08685,11635.538
-24.328487,163.08037,11645.745
-24.34793,163.07445,11655.936
-24.367409,163.06935,11666.102
-24.386911,163.06468,11676.251
-24.40644,163.06073,11686.379
-24.425983,163.05722,11696.48
-24.445543,163.0542,11706.564
-24.465126,163.05176,11716.624
-24.484724,163.04973,11726.664
-24.504333,163.0481,11736.679
-24.52396,163.04697,11746.67
-24.543596,163.04633,11756.638
-24.56325,163.04607,11766.581
-24.582912,163.04633,11776.498
-24.602573,163.04703,11786.395
-24.622261,163.04814,11796.264
-24.641975,163.04974,11806.095
-24.6616,163.05264,11815.909
-24.681225,163.05522,11825.722
-24.70084,163.05804,11835.533
-24.720459,163.0607,11845.344
-24.740076,163.06335,11855.146
-24.759693,163.06606,11864.95
-24.779306,163.06865,11874.755
-24.798923,163.07132,11884.555
-24.818533,163.07393,11894.353
-24.83814,163.07652,11904.1455
-24.85775,163.07913,11913.942
-24.877352,163.0818,11923.734
-24.896952,163.08424,11933.523
-24.916553,163.08684,11943.31
-24.936157,163.08936,11953.095
-24.955744,163.09193,11962.875
-24.975348,163.09439,11972.654
-24.99494,163.09691,11982.433
-25.014532,163.09935,11992.213
-25.034124,163.10182,12001.984
-25.053703,163.1043,12011.759
-25.073292,163.10672,12021.525
-25.084486,163.21088,12023.014
-25.10385,163.24751,12022.84
-25.122173,163.25322,12022.352
-25.138983,163.26436,12021.528
-25.155638,163.2817,12020.054
-25.173435,163.2869,12018.747
-25.19131,163.28387,12017.943
-25.208591,163.28442,12017.223
-25.225956,163.28542,12016.512
-25.243378,163.28442,12015.808
-25.260736,163.28203,12015.12
-25.27803,163.27872,12014.449
-25.295277,163.27469,12013.794
-25.31248,163.26974,12013.159
-25.329655,163.26405,12012.545
-25.346788,163.25772,12011.952
-25.36389,163.25069,12011.377
-25.380962,163.24309,12010.83
-25.398,163.23492,12010.301
-25.415022,163.2261,12009.794
-25.432009,163.21683,12009.312
-25.448986,163.20712,12008.8545
-25.465927,163.19678,12008.416
-25.482853,163.18596,12008.006
-25.499763,163.1746,12007.614
-25.51665,163.16277,12007.249
-25.533522,163.15036,12006.912
-25.550358,163.13757,12006.601
-25.567173,163.12384,12006.329
-25.584064,163.10913,12006.075
-25.600962,163.09445,12005.823
-25.617851,163.07965,12005.571
-25.63475,163.06479,12005.324
-25.651659,163.04999,12005.072
-25.668568,163.03522,12004.818
-25.685463,163.02051,12004.563
-25.702362,163.00572,12004.308
-25.719261,162.99104,12004.054
-25.736162,162.97635,12003.8
-25.75306,162.96165,12003.545
-25.769957,162.94687,12003.291
-25.786858,162.93213,12003.036
-25.80376,162.91753,12002.778
-25.820652,162.90285,12002.523
-25.837553,162.88815,12002.273
-25.854452,162.8734,12002.012
-25.871351,162.85875,12001.759
-25.88825,162.84404,12001.505
-25.905142,162.82924,12001.251
-25.922047,162.81462,12000.991
-25.938942,162.79997,12000.737
-25.95584,162.78519,12000.482
-25.97274,162.77042,12000.2295
-25.989635,162.75583,11999.973
-26.006538,162.74101,11999.716
-26.02343,162.7264,11999.459
-26.04033,162.71172,11999.203
-26.056429,162.70607,11998.193
-26.07417,162.68335,11997.927
-26.090479,162.6705,11997.368
-26.106556,162.66586,11996.084
-26.124468,162.63583,11996.025
-26.140648,162.6144,11996.201
-26.1568,162.59898,11996.389
-26.173208,162.58331,11996.568
-26.189615,162.56688,11996.76
-26.205944,162.55077,11996.951
-26.222273,162.5347,11997.14
-26.238598,162.51903,11997.335
-26.254911,162.50325,11997.529
-26.27123,162.48776,11997.725
-26.287542,162.47224,11997.919
-26.303858,162.45683,11998.115
-26.320171,162.44139,11998.307
-26.336485,162.42609,11998.502
-26.352797,162.41078,11998.695
-26.369116,162.39561,11998.888
-26.385431,162.38043,11999.082
-26.401743,162.36531,11999.272
-26.418056,162.35023,11999.462
-26.434376,162.33508,11999.652
-26.450691,162.32013,11999.842
-26.467009,162.305,12000.034
-26.483322,162.2901,12000.222
-26.499636,162.27507,12000.407
-26.51595,162.26006,12000.596
-26.532269,162.24529,12000.779
-26.54859,162.23022,12000.965
-26.564907,162.2154,12001.148
-26.581238,162.20058,12001.323
-26.597548,162.18584,12001.497
-26.613863,162.17116,12001.676
-26.630177,162.15643,12001.8545
-26.646488,162.14182,12002.029
-26.662798,162.1271,12002.206
-26.679115,162.11238,12002.383
-26.695421,162.09784,12002.561
-26.711737,162.08316,12002.734
-26.728052,162.06847,12002.911
-26.744362,162.05382,12003.087
-26.760672,162.0391,12003.263
-26.77698,162.02444,12003.4375
-26.793293,162.00966,12003.615
-26.809605,161.99512,12003.791
-26.825918,161.98036,12003.967
-26.84222,161.9658,12004.141
-26.85854,161.951,12004.315
-26.874453,161.9302,12004.8
-26.88887,161.92076,12004.62
-26.903858,161.90814,12004.24
-26.917543,161.90826,12002.532
-26.931505,161.90807,11999.719
-26.948303,161.86964,11998.832
-26.962662,161.84625,11998.304
-26.977139,161.83167,11997.79
-26.99205,161.8158,11997.2705
-27.006927,161.79843,11996.757
-27.02171,161.78113,11996.248
-27.036465,161.76422,11995.74
-27.051222,161.74724,11995.24
-27.065968,161.73033,11994.737
-27.080706,161.71335,11994.24
-27.095438,161.69644,11993.748
-27.110168,161.67949,11993.252
-27.124891,161.6626,11992.763
-27.139612,161.64568,11992.273
-27.154327,161.62871,11991.786
-27.169046,161.61163,11991.302
-27.183754,161.59465,11990.822
-27.19846,161.57767,11990.339
-27.213167,161.5606,11989.859
-27.22787,161.54349,11989.381
-27.242575,161.52638,11988.903
-27.257267,161.50937,11988.432
-27.271967,161.49225,11987.958
-27.286657,161.47516,11987.488
-27.301346,161.45796,11987.0205
-27.316029,161.44077,11986.557
-27.330727,161.4234,11986.096
-27.345428,161.4059,11985.631
-27.360151,161.38846,11985.162
-27.374846,161.37154,11984.69
-27.389545,161.35442,11984.214
-27.404242,161.33727,11983.741
-27.418941,161.32019,11983.2705
-27.433641,161.30324,11982.796
-27.448343,161.286,11982.324
-27.46304,161.26895,11981.851
-27.477737,161.25179,11981.377
-27.49244,161.23471,11980.898
-27.507132,161.2177,11980.424
-27.521835,161.20062,11979.955
-27.536531,161.18352,11979.482
-27.551233,161.16644,11979.006
-27.565935,161.14932,11978.532
-27.58063,161.1323,11978.059
-27.59533,161.11517,11977.583
-27.610025,161.09807,11977.112
-27.624727,161.08101,11976.639
-27.639421,161.064,11976.163
-27.654127,161.0469,11975.6875
-27.668821,161.02975,11975.213
-27.68353,161.01263,11974.739
-27.698225,160.99551,11974.267
-27.712917,160.9785,11973.794
-27.727623,160.96152,11973.318
-27.742313,160.94446,11972.843
-27.757015,160.92738,11972.369
-27.771719,160.91026,11971.893
-27.786419,160.8932,11971.419
-27.803131,160.85063,11973.006
-27.81689,160.83533,11974.159
-27.829687,160.84558,11973.222
-27.846367,160.81538,11973.529
-27.858606,160.81967,11971.783
-27.8741,160.79878,11970.729
-27.889086,160.77121,11970.415
-27.903238,160.75291,11970.206
-27.917654,160.7371,11970.001
-27.932209,160.72012,11969.788
-27.946718,160.70268,11969.578
-27.961191,160.68565,11969.369
-27.975653,160.66855,11969.162
-27.990122,160.65157,11968.956
-28.004591,160.63461,11968.753
-28.019066,160.61772,11968.544
-28.033527,160.60081,11968.337
-28.047997,160.58391,11968.126
-28.06246,160.56714,11967.922
-28.076921,160.55031,11967.715
-28.09139,160.53339,11967.504
-28.105854,160.5168,11967.298
-28.120325,160.5,11967.086
-28.13478,160.48329,11966.878
-28.149246,160.46657,11966.667
-28.163715,160.44981,11966.454
-28.17818,160.43329,11966.244
-28.19265,160.4166,11966.028
-28.207115,160.40004,11965.815
-28.221558,160.3835,11965.603
-28.236006,160.3668,11965.395
-28.250471,160.35005,11965.19
-28.264925,160.33325,11964.984
-28.279404,160.31638,11964.774
-28.293873,160.29965,11964.565
-28.30833,160.2831,11964.353
-28.322792,160.26639,11964.144
-28.337261,160.24985,11963.929
-28.351715,160.23317,11963.715
-28.36618,160.21652,11963.507
-28.380648,160.19986,11963.291
-28.395103,160.18329,11963.08
-28.409569,160.16669,11962.868
-28.42403,160.15001,11962.655
-28.438488,160.13338,11962.443
-28.452948,160.11678,11962.231
-28.467411,160.10017,11962.018
-28.481869,160.08356,11961.808
-28.496334,160.06691,11961.592
-28.510792,160.05034,11961.38
-28.525251,160.03372,11961.167
-28.539717,160.017,11960.952
-28.554178,160.00041,11960.745
-28.568638,159.98386,11960.531
-28.583103,159.96713,11960.318
-28.597563,159.95064,11960.1045
-28.611961,159.9276,11960.253
-28.6257,159.90764,11960.477
-28.639395,159.88971,11960.7
-28.653158,159.87183,11960.929
-28.666903,159.85378,11961.158
-28.68062,159.8358,11961.385
-28.694332,159.81805,11961.616
-28.708038,159.80043,11961.847
-28.721735,159.7829,11962.079
-28.735432,159.76534,11962.312
-28.749125,159.7479,11962.544
-28.762823,159.73053,11962.773
-28.776514,159.7131,11963.003
-28.7902,159.6959,11963.236
-28.803892,159.67857,11963.466
-28.817577,159.66142,11963.697
-28.831263,159.6442,11963.927
-28.84496,159.62701,11964.155
-28.85864,159.60995,11964.379
-28.872326,159.59282,11964.61
-28.886011,159.57567,11964.836
-28.899693,159.55862,11965.0625
-28.91337,159.54161,11965.289
-28.92706,159.5246,11965.515
-28.940737,159.50769,11965.737
-28.954414,159.49069,11965.963
-28.9681,159.47368,11966.184
-28.98178,159.45683,11966.405
-28.995466,159.43991,11966.626
-29.009138,159.42302,11966.847
-29.02281,159.40631,11967.067
-29.036486,159.38945,11967.287
-29.05016,159.37251,11967.507
-29.063833,159.35571,11967.729
-29.077507,159.33896,11967.947
-29.091177,159.32214,11968.168
-29.104849,159.30534,11968.387
-29.11852,159.28851,11968.6045
-29.132198,159.27165,11968.828
-29.145868,159.25485,11969.048
-29.159536,159.2381,11969.267
-29.173216,159.22125,11969.488
-29.186888,159.20439,11969.712
-29.200554,159.18755,11969.93
-29.21423,159.1707,11970.146
-29.227905,159.15388,11970.368
-29.241573,159.1371,11970.586
-29.255241,159.12027,11970.81
-29.268915,159.10355,11971.025
-29.282589,159.08662,11971.245
-29.296253,159.06982,11971.465
-29.309929,159.05292,11971.686
-29.323605,159.03612,11971.908
-29.337273,159.01929,11972.128
-29.35094,159.00249,11972.347
-29.36354,158.9949,11971.766
-29.376806,158.98058,11971.041
-29.391096,158.94897,11971.475
-29.402523,158.94653,11970.588
-29.41718,158.91713,11970.966
-29.428919,158.91092,11970.221
-29.443392,158.88116,11970.694
-29.455872,158.86508,11970.822
-29.468866,158.84998,11970.855
-29.48203,158.8323,11970.889
-29.49509,158.81438,11970.922
-29.508116,158.79674,11970.962
-29.521143,158.77924,11970.993
-29.534184,158.76169,11971.03
-29.54722,158.74413,11971.065
-29.56025,158.72668,11971.1045
-29.57328,158.70914,11971.145
-29.586306,158.69154,11971.181
-29.599335,158.674,11971.222
-29.61236,158.65656,11971.261
-29.625387,158.63899,11971.307
-29.638412,158.62138,11971.345
-29.651428,158.60385,11971.386
-29.66445,158.5863,11971.428
-29.677465,158.56876,11971.47
-29.690493,158.55124,11971.517
-29.703508,158.5337,11971.5625
-29.716526,158.51614,11971.604
-29.72954,158.49844,11971.651
-29.742567,158.48082,11971.698
-29.75559,158.4632,11971.739
-29.768602,158.44568,11971.786
-29.781633,158.42813,11971.826
-29.794643,158.41063,11971.873
-29.807674,158.39299,11971.912
-29.82068,158.37564,11971.953
-29.833702,158.35811,11971.993
-29.846722,158.34055,11972.039
-29.859737,158.32301,11972.079
-29.872753,158.30556,11972.122
-29.885773,158.28793,11972.165
-29.898787,158.27055,11972.209
-29.911802,158.25293,11972.247
-29.924824,158.23549,11972.292
-29.937843,158.21802,11972.332
-29.950855,158.20047,11972.377
-29.963879,158.18292,11972.416
-29.97689,158.16544,11972.459
-29.989904,158.14787,11972.501
-30.002922,158.13037,11972.543
-30.015942,158.1129,11972.585
-30.028955,158.09537,11972.624
-30.041977,158.07787,11972.665
-30.054989,158.06033,11972.711
-30.06801,158.04283,11972.752
-30.081024,158.02542,11972.794
-30.094038,158.00786,11972.835
-30.107052,157.9903,11972.877
-30.12007,157.97276,11972.919
-30.133087,157.95535,11972.961
-30.146101,157.93788,11973.002
-30.159115,157.92035,11973.044
-30.172134,157.90274,11973.086
-30.185146,157.88533,11973.126
-30.19895,157.85872,11973.836
-30.21102,157.85054,11973.651
-30.225006,157.82666,11974.085
-30.236864,157.82144,11973.354
-30.252235,157.7807,11974.635
-30.265015,157.75769,11976.02
-30.276964,157.75423,11976.321
-30.290314,157.7401,11976.432
-30.303465,157.72116,11976.534
-30.316359,157.7032,11976.639
-30.329273,157.68599,11976.747
-30.34224,157.66869,11976.847
-30.355217,157.65115,11976.943
-30.368189,157.63365,11977.044
-30.381151,157.61606,11977.142
-30.394123,157.59836,11977.24
-30.40709,157.5808,11977.34
-30.420061,157.56322,11977.434
-30.433025,157.54555,11977.53
-30.445995,157.52782,11977.628
-30.458958,157.51016,11977.726
-30.471928,157.49251,11977.819
-30.484884,157.4749,11977.915
-30.497852,157.45718,11978.009
-30.510815,157.43944,11978.108
-30.52377,157.42178,11978.201
-30.536737,157.40402,11978.299
-30.5497,157.38638,11978.389
-30.562664,157.36864,11978.483
-30.575611,157.35112,11978.58
-30.588572,157.33344,11978.676
-30.601532,157.31567,11978.7705
-30.614502,157.29807,11978.862
-30.627441,157.28043,11978.958
-30.640385,157.26283,11979.057
-30.65334,157.24501,11979.156
-30.666296,157.22733,11979.254
-30.679249,157.2095,11979.356
-30.692204,157.1917,11979.454
-30.705154,157.174,11979.553
-30.718107,157.15617,11979.652
-30.73106,157.13835,11979.75
-30.744019,157.12059,11979.85
-30.756968,157.10281,11979.95
-30.769928,157.08502,11980.049
-30.782877,157.06725,11980.148
-30.795834,157.04941,11980.245
-30.808786,157.03171,11980.346
-30.821737,157.01395,11980.444
-30.834684,156.99619,11980.544
-30.847641,156.97835,11980.644
-30.860596,156.96057,11980.743
-30.873545,156.94278,11980.842
-30.886503,156.92502,11980.939
-30.899452,156.9072,11981.04
-30.912409,156.88954,11981.139
-30.923836,156.88933,11979.827
-30.936956,156.87358,11978.551
-30.950659,156.84207,11978.325
-30.964285,156.80656,11979.437
-30.975508,156.8022,11979.397
-30.988647,156.78667,11979.378
-31.001507,156.76657,11979.394
-31.014055,156.7478,11979.421
-31.026625,156.73006,11979.446
-31.039238,156.71223,11979.474
-31.051853,156.6943,11979.501
-31.064451,156.67625,11979.531
-31.077057,156.65839,11979.556
-31.08966,156.64041,11979.589
-31.102262,156.62245,11979.617
-31.114859,156.60454,11979.646
-31.127459,156.58665,11979.677
-31.140055,156.56876,11979.708
-31.152649,156.55081,11979.739
-31.165241,156.53297,11979.7705
-31.177834,156.51498,11979.803
-31.19043,156.49707,11979.832
-31.203026,156.47925,11979.863
-31.215618,156.46126,11979.896
-31.228209,156.44333,11979.93
-31.2408,156.42545,11979.961
-31.253391,156.4075,11979.993
-31.26598,156.38968,11980.027
-31.278566,156.37167,11980.067
-31.29118,156.35358,11980.099
-31.303783,156.33562,11980.128
-31.31638,156.31781,11980.154
-31.328953,156.30014,11980.182
-31.341545,156.28229,11980.215
-31.354136,156.26443,11980.246
-31.36673,156.24649,11980.276
-31.379316,156.22868,11980.304
-31.391909,156.21092,11980.337
-31.4045,156.19307,11980.365
-31.417093,156.17526,11980.397
-31.429684,156.1574,11980.425
-31.442272,156.13959,11980.458
-31.45486,156.12169,11980.484
-31.467447,156.10387,11980.515
