Latitude,Longitude,Altitude (m)
22.902796990420555,120.27307416588974,3.7924016320258382
22.902794520409675,120.27307501079461,3.760066639438272
22.902792067286686,120.27307584713706,3.727799903407693
22.902789630373995,120.27307667394511,3.6956045265048747
22.902787209358856,120.2730774916353,3.6634829907864335
22.90278480335518,120.27307829951341,3.631434675738216
22.90278241205022,120.27307909781084,3.599465786501766
22.902780035027007,120.27307988611102,3.5675725999921566
22.902777672129158,120.2730806643677,3.5357625623792415
22.902775322991815,120.27308143239573,3.504039396747947
22.902772987250117,120.27308219000997,3.472402482584119
22.902770665164677,120.27308293711786,3.440855542972684
22.902768356787625,120.2730836737657,3.409405403569341
22.902766061701968,120.27308439967577,3.3780458592325453
22.902763780481063,120.27308511494063,3.3467849766463047
22.902761513698266,120.27308581951401,3.315623996838928
22.90275926161419,120.27308651348847,3.284570365980268
22.90275702480219,120.27308719644746,3.2536191199570896
22.90275480373138,120.27308786917781,3.222772740826011
22.902752599287847,120.2730885314481,3.1920467414408926
22.902750412566178,120.27308918335088,3.1614274704903367
22.902748244296095,120.27308982502501,3.1309248562008145
22.902746095884925,120.27309045684076,3.1005426216572527
22.902743968114518,120.27309107884442,3.070282628402114
22.90274186270493,120.2730916912674,3.0401498405486347
22.902739780698628,120.27309229457254,3.0101442580968145
22.90273772376355,120.27309288894494,2.9802677425891164
22.902735693307026,120.27309347480121,2.9505240171104674
22.902733690163018,120.27309405241901,2.9209161842316393
22.902731716989813,120.2730946222149,2.8914454849809412
22.90272977482987,120.27309518455915,2.862116262957454
22.90272786519476,120.27309573977575,2.832931000217796
22.902725989856666,120.2730962884201,2.8038934198468928
22.90272415058778,120.27309683076989,2.7750084859579807
22.902722348795425,120.27309736733424,2.7462681318670517
22.902720585886925,120.27309789852973,2.7176835268288855
22.902718863790835,120.27309842486542,2.689254050329328
22.90271718354962,120.27309894675793,2.6609921126514675
22.902715547091834,120.27309946453119,2.632889647111297
22.902713955564185,120.27309997864806,2.604950997307897
22.902712410582488,120.27310048980279,2.5771828337684277
22.902710913293458,120.27310099813423,2.549578641094268
22.902709464895924,120.2731015043829,2.522150674439967
22.902708066849335,120.27310200864139,2.4949020363762977
22.90270672019615,120.27310251165022,2.4678277627900247
22.902705426291572,120.2731030136871,2.440931576766074
22.90270418544834,120.27310351516859,2.4142283706441523
22.902702999334398,120.27310401665007,2.3876989084854725
22.902701868940078,120.27310451836296,2.3613661493137483
22.902700794630245,120.27310502067755,2.335222026444972
22.902699777447367,120.27310552424179,2.309272745020688
22.902698818538145,120.27310602919452,2.2835164434984327
22.902697917954708,120.27310653590604,2.2579605680480603
22.902697077104374,120.27310704493172,2.2326020160987974
22.902696296091396,120.2731075562253,2.207449474848807
22.902695575541248,120.27310807038846,2.1825023237839343
22.902694916340025,120.27310858746746,2.1577636654749517
22.90269431859197,120.27310910792518,2.1332322588935497
22.902693783495916,120.27310963171529,2.1089130681529644
22.90269331058276,120.27311015920809,2.0848116778805856
22.9026929005301,120.27311069072755,2.060923744477332
22.902692553963405,120.27311122622739,2.0372560935989026
22.90269227124755,120.27311176589272,2.013809966273606
22.902692052591018,120.27311230976987,1.9905816394165161
22.902691897993815,120.27311285809023,1.9675829027965668
22.902691808550525,120.27311341066867,1.9448125153854492
22.902691783635667,120.27311396769032,1.9222667540982368
22.902691823718357,120.2731145291552,1.899951824076474
22.90269192931982,120.2731150949707,1.8778720689192416
22.90269210038793,120.27311566509059,1.8560243860557677
22.902692337026938,120.27311623951483,1.834410016514361
22.902692639497463,120.27311681801201,1.8130376474931837
22.902693008060115,120.27311740062844,1.791904796935618
22.90269344245428,120.2731179872715,1.7710077417567374
22.90269394340968,120.2731185775247,1.750355169154704
22.902694510613582,120.27311917134172,1.7299458381012085
22.90269514422235,120.27311976872257,1.7097785075679424
22.9026958444966,120.27312036929698,1.6898575211539866
22.902696611384208,120.27312097283352,1.6701797762885693
22.902697444989425,120.27312157914707,1.650749616570771
22.90269834515588,120.27312218800623,1.631568283028901
22.902699312352677,120.27312279922583,1.6126320525780322
22.902700346475577,120.27312341238934,1.5939452688172462
22.902701447628818,120.2731240274042,1.5755035881474615
22.902702615499667,120.27312464403897,1.557313215710223
22.902703850661478,120.27312526178454,1.5393667053356768
22.902705152905757,120.2731258806872,1.52166219548136
22.902706522284625,120.27312650028412,1.5042083733454348
22.902707959058702,120.2731271202513,1.486999654300511
22.902709462915247,120.27312774044991,1.4700329357758166
22.90271103421912,120.27312836046337,1.4533094587996604
22.90271267286608,120.27312898006029,1.4368248797729612
22.902714378699752,120.27312959910181,1.420578578181565
22.902716152293493,120.27313021717136,1.4045699335113169
22.902717993282444,120.27313083399127,1.3887890175357462
22.90271990187509,120.27313144928382,1.373241414882243
22.90272187807144,120.27313206286388,1.3579184383526446
22.902723922184226,120.2731326743612,1.342815123833716
22.902726034004957,120.27313328359061,1.327929609782994
22.902728213481513,120.27313389018187,1.3132525884881616
22.902730460926627,120.27313449394983,1.298781655456871
22.902732776653046,120.27313509470937,1.2845092093907298
22.902735160243775,120.27313569195137,1.2704316047690811
22.902737611907316,120.2731362857221,1.2565345697663726
22.90274013174791,120.27313687569759,1.242813140269369
22.90274272018254,120.27313746160013,1.2292629726789894
22.90274537700272,120.27313804301318,1.215872277226299
22.902748102416936,120.2731386200293,1.2026211974583567
22.902750896581562,120.27313919218565,1.1895072513185443
22.902753759444472,120.27313975943595,1.1765143054388465
22.902756691057792,120.27314032131737,1.1636342931352557
22.902759691525766,120.27314087769105,1.1508442553840579
22.902762761578117,120.27314142837187,1.1381324024163189
22.90276590074574,120.27314197335981,1.1254813598357143
22.902769109393496,120.27314251196064,1.1128762353025379
22.902772387365015,120.27314304445206,1.1002860031090678
22.902775735337897,120.27314357023236,1.0876994940005245
22.9027791529994,120.27314408934785,1.0750918874107303
22.902782640766517,120.27314460142824,1.062432778146118
22.90278619858712,120.27314510633471,1.0497029302679004
22.902789827086686,120.27314560402094,1.0368620103560389
22.902793526056726,120.27314609411668,1.0238907824717463
22.90279729539299,120.27314657634425,1.0107507747374476
22.902801136033695,120.27314705065731,0.9974028947614134
22.90280504745761,120.27314751682451,0.9838117732368411
22.902809030498705,120.27314797466066,0.9699314921163024
22.90281308463575,120.27314842384182,0.9557217179797591
22.902815732386504,120.27314896272034,0.9935228197537364
22.902816101209773,120.27314998049403,1.0289442497454584
22.90281200933558,120.27315164572727,1.1464752152226867
22.902783973346455,120.27315460245467,2.047247612513602
22.90273908428149,120.27316065462105,2.580767544038594
22.902683511590705,120.27316785859807,3.1812172181606297
22.90261181820617,120.27317414324637,4.237703686729074
22.902530925688627,120.27318108766563,5.149522554561496
22.902445786595436,120.27318904777582,6.109299410104752
22.902356973082206,120.2731979670648,7.19410769596696
22.902268729346453,120.27320762462153,8.24909283053875
22.902185347304428,120.27321601623258,9.294345821112396
22.902112863778857,120.27322154664533,10.252739860862494
22.902052420057785,120.27322050068501,11.225503146886826
22.90200492530543,120.27321023334346,12.114883602380754
22.901994103709686,120.27319370356969,12.122215597629548
22.901987175633565,120.27314262355011,12.61195142990351
22.901978527676587,120.27307560632413,12.883188095033171
22.901979646603817,120.2729995587751,12.71989979529381
22.90198371885365,120.27289326247411,12.818717915415766
22.901995659037823,120.27275779676346,12.982765724480153
22.902036642464545,120.27262880474883,13.121646720469
22.902126821219372,120.27262056065192,13.451773901939394
22.902222521869263,120.27283089733932,13.798515970408918
22.90228657065078,120.2730225249607,14.027531611442567
22.902360243626177,120.2729950568738,14.181374444723131
22.902471214134646,120.27289549921574,14.185046647489072
22.90257216595207,120.27286129431411,14.282436344027522
22.902647783061575,120.2728766980803,14.174387455344203
22.902688177809665,120.27288413875102,14.155542440474035
22.902694166131816,120.27287531163559,14.220537575066091
22.90267841134244,120.27286443557374,14.394179773986341
22.90265433186374,120.27285437500363,14.625194711625578
22.9026299482987,120.27283895256205,14.899006510496141
22.902611873873674,120.27281204142739,15.200766266882422
22.902603691324124,120.27277971325134,15.49771331548691
22.902607645593253,120.27275996182354,15.72135282188654
22.902618378475427,120.27276785380445,16.024867392301562
22.902632993071336,120.2727971480291,16.341513283252716
22.90265286621345,120.27283190342642,16.48618864041567
22.902675671802854,120.27283249809967,16.698439230024817
22.90269952569265,120.27282295037364,16.800680106222632
22.902718315924616,120.27282696683069,17.06950669437647
22.902728143271656,120.27286732044604,17.178239389657975
22.902728521685578,120.27291502843657,17.43028975713253
22.902722108299304,120.27294841569429,17.7701391543746
22.902715450716165,120.27297682437715,18.154756165802482
22.902712852638754,120.27300624231755,18.51614485037327
22.902722299695437,120.27302992038932,18.7281832241416
22.902744233681865,120.27301617410389,18.958442375540734
22.902760183985098,120.2729633661601,19.063582293868066
22.90274672480261,120.27288511480013,19.1738439360261
22.902705304323447,120.2728105792629,19.20325382488966
22.902688100615308,120.27277509508595,19.25618616431952
22.90273162937083,120.27280912883127,19.379620080947877
22.902779220967965,120.27287834512414,19.474654305756093
22.902811859742197,120.27297272285108,19.56365837401152
22.902826717023398,120.2730752733145,19.399529898107055
22.902828541020206,120.27314436334603,19.325393348991874
22.90282831063597,120.27318219897822,19.137705191671852
22.902836334522714,120.27319921056299,19.0737326644063
22.90284974491795,120.27319415936938,18.887039811789993
22.902841425440936,120.2731614004793,18.742510895967484
22.902820155242573,120.27313759892321,17.8652267434001
22.902814940062807,120.27311887049912,17.586911252796654
22.9028217257646,120.27311304539947,17.25340475124121
22.90282788244446,120.27314387894316,16.61512651759386
22.902830006826864,120.27317178343698,16.23256340801716
22.902832160763086,120.27317028741612,15.810945137560369
22.90282362507933,120.27314015775156,15.751642599821093
22.902811344140197,120.27311779130727,15.35505338829756
22.902796466374607,120.27310472113088,15.019255948483945
22.902776761694447,120.27308246595207,15.051463115155698
22.90276100716569,120.2730665070387,14.910219201266768
22.902747483923875,120.27305947745783,14.836224129378797
22.902734577872046,120.27305301915393,14.855692140460016
22.902725943675573,120.27304854284739,14.7652199357152
22.902722510377128,120.2730454157505,14.612274365901948
22.902725724706304,120.27304277574093,14.357105294287207
22.90273195545313,120.27303805241948,14.095355049550536
22.902738417887274,120.27303286582355,13.779875725209715
22.902744192765205,120.27302910461988,13.404154404699804
22.902749804706236,120.27302702075258,13.003969934165479
22.902757121959706,120.273027650717,12.564163152813913
22.902766837189894,120.2730311018908,12.1013861784935
22.902779776861145,120.27303769835088,11.568900644063952
22.902795280625522,120.27304631712123,10.992764420926573
22.902796745441844,120.27305166911117,10.838677105069161
22.902799081027172,120.27306690956611,10.213965792894365
22.902804575378422,120.2730848584376,9.612995972782375
22.90280953713553,120.27310230754009,9.053516831606627
22.902812253688815,120.27311886198295,8.515640890717508
22.902812902621783,120.27313399070958,7.984855565071107
22.902812009439828,120.27314724190065,7.4847937567532075
22.902810007755267,120.27315855344374,7.025251522719861
22.902807236941804,120.27316812310814,6.610996273219587
22.902803982582064,120.27317625020912,6.247008875370026
22.902800472089265,120.27318324336488,5.937251932561399
22.902796864230456,120.27318937740675,5.684761620551348
22.902793320847962,120.27319489064833,5.4908317113518725
22.90278999351584,120.27319998048864,5.355035911738873
22.90278700378523,120.27320479697875,5.2742300764918335
22.902784402684677,120.2732094432845,5.242712301045657
22.902782200899424,120.27321398568385,5.254026135623456
22.902780409218956,120.27321846541537,5.302335644602776
22.90277902404678,120.27322290326033,5.383436844587327
22.902778024637886,120.27322729931133,5.495502321392299
22.902777280788698,120.27323163167625,5.638631357282401
22.90277669018151,120.2732358785556,5.815818553566934
22.902776197305197,120.27324003657067,6.0283036975264555
22.902775875705483,120.27324412080986,6.273562537580729
22.902775762077063,120.27324812951443,6.545541958153248
22.902775843076405,120.27325201135598,6.834692866921426
22.902775749150525,120.27325567862734,7.128683165580036
22.902774772258823,120.27325884099223,7.421712908327581
22.902771604527725,120.2732609277291,7.709153680086136
22.902765566063124,120.27326155255605,7.990240386903287
22.902757887231502,120.27326102557238,8.268941837310791
22.902749744191283,120.27325980072642,8.550472832262518
22.90274227572861,120.27325846498526,8.837848450034858
22.90273565207763,120.27325737834177,9.132557924598457
22.902729287270112,120.27325632141228,9.436152541339398
22.9027231856844,120.27325524064679,9.748320802152158
22.902717213781035,120.27325409943508,10.068836219370366
22.902711195279593,120.27325275128995,10.397437556535007
22.902705142898114,120.27325111975107,10.733308837532999
22.90269903610009,120.27324913386589,11.075895943224431
22.90269288645685,120.27324677262172,11.424577738940718
22.902686609216193,120.2732439739061,11.779143249869348
22.902680153975044,120.27324066459117,12.139328136980534
22.902673483465367,120.27323677571452,12.505133641302587
22.90266653764132,120.27323220938662,12.877010256111623
22.90265925119262,120.27322683818905,13.25540102851391
22.902651555525225,120.27322047286864,13.640739077389242
22.902643471853253,120.27321286553112,14.032763786792756
22.902634883342703,120.27320361661121,14.4311735868454
22.90262536031656,120.27319186306092,14.835686764121057
22.902615159872155,120.27317692974313,15.235747131824496
22.902604319486024,120.27315806158921,15.62963586574793
22.90259294846037,120.27313461354633,16.01557084923983
22.902581179761295,120.27310644718061,16.391659514129163
22.902569009609874,120.27307456244657,16.755866573989394
22.902556254532687,120.27304166433579,17.106022711336614
22.90254247090978,120.27301321459947,17.43984567511082
22.902527058960295,120.27299951848534,17.755042044997218
22.902510555422158,120.27300721466399,18.049515724182132
22.90249385149665,120.27302064113059,18.321557816684248
22.902479468405627,120.27301801454323,18.57011593049765
22.902468242542888,120.27299939525557,18.794868639290335
22.90246175639272,120.27298285724333,18.776475358724596
22.902453452787203,120.2729606340927,18.922375610828404
22.90244772938086,120.27293676343538,19.043988938927654
22.90244383088348,120.27291798780213,19.17100074017048
22.90244143963065,120.27290286872561,19.257129345834258
22.90244023217228,120.27288668436543,19.324235469579698
22.902442223588583,120.27287103837466,19.331959629774097
22.902453299727632,120.27285667478334,19.358114301383498
22.902481178409147,120.27284600019348,19.343760567963127
22.902525771362615,120.27283922251044,19.322757404863836
22.9025746191793,120.2728347330131,19.242512514412404
22.902612154973713,120.27282934230703,19.18070930463076
22.902631719442656,120.27282215466809,19.16989498394728
22.902640495831026,120.27281876861515,19.196385974228384
22.902648334472165,120.27281829812046,19.252063468277456
22.902659441389922,120.27281630691269,19.290053826868537
22.90266825306565,120.27280567388537,19.343056904911997
22.902667863914363,120.27278934586128,19.38430992692709
22.90265559944614,120.27277224626847,19.464971802890304
22.902637893635887,120.27276329077424,19.52645730942488
22.902622342647952,120.27275958715879,19.60441126161814
22.902613776837025,120.27275843291828,19.584654090940955
22.90260806586205,120.27274846086532,19.633663539886477
22.902600774930757,120.27273866124725,19.641872942149643
22.9025903990399,120.27273879700246,19.699380952954296
22.9025791707795,120.27275975873164,19.72334148651362
22.902570449276784,120.27279365445965,19.79696424990893
22.90256545410875,120.27282789726745,19.89467537277937
22.902564211962442,120.27285336875454,19.983013008832934
22.902561934207725,120.27287105866996,20.05291268730164
22.902553655569186,120.27288344012507,20.122744109213354
22.90253988912085,120.2728911317448,20.173237828016283
22.90252506269654,120.2728923846154,20.211128904342655
22.902512820849754,120.27288812945132,20.251994725525382
22.90250486490551,120.27288719746406,20.258791837573053
22.902503534749297,120.27289168522577,20.259648147106173
22.90251049034643,120.27289957165266,20.217365071594717
22.90252230311561,120.27290656626636,20.199953444421293
22.902534786500983,120.27291452098453,20.16718781501055
22.902546334250108,120.27292348428908,20.12710508269072
22.90255670568444,120.2729281643355,20.077823848545552
22.90256255210137,120.27292864448029,20.02212525701523
22.902560731075578,120.27292916602566,19.994217012405397
22.90255532280568,120.27294013405277,19.94168304306269
22.902553932733927,120.27296008533264,19.895504379689697
22.90256086578781,120.27298458893965,19.797504097223285
22.90257025402354,120.2730042624955,19.71481562203169
22.902573644242217,120.27302212083652,19.613089772582057
22.902567727667556,120.2730417749533,19.563462291538716
22.902557567592517,120.2730657137399,19.510475346863274
22.902549987508163,120.27308777244535,19.494701877057555
22.902548602205677,120.27310681189441,19.39592843395472
22.90255232139949,120.27311943182514,19.382224999368194
22.90255819283552,120.27313272707808,19.33817594057322
22.90256818442254,120.27314611406486,19.36826591295004
22.902583868037784,120.27315843801274,19.33192115789652
22.902603773261685,120.27316465115307,19.332891642034056
22.902624589076666,120.2731631434225,19.347009580075742
22.90264320253304,120.27315918396356,19.387048876404766
22.90265988349831,120.27315822372024,19.437310522913936
22.90267569869839,120.27315969007338,19.541067935705186
22.902690340554695,120.2731622147908,19.588965423285963
22.902701672748616,120.27316425015302,19.621755873262885
22.902710491617338,120.27316667591636,19.569565668761733
22.90271972913904,120.2731665228569,19.551109095752242
22.90273376344814,120.27316278856708,19.485893058121206
22.902754817179147,120.27315573584447,19.370608974397186
22.902777127338204,120.27314773028391,19.24516086882353
22.9027943350077,120.27314217279533,19.133902680933478
22.902804864088438,120.27313829831284,19.090497715830804
22.90281471400479,120.27313552783015,19.02948504108191
22.902827963287432,120.273132417997,18.981766261577608
22.902844889544152,120.27313184861767,18.86522998028994
22.902861057305085,120.27312983366646,18.81069919639826
22.902872894155152,120.27312596316436,18.749357649147512
22.90287841050236,120.27311933976729,18.78388553875685
22.902882132875686,120.27311570059001,18.759869158923628
22.90288886155477,120.27311420031108,18.761964014708997
22.90290204583987,120.27311449555339,18.68777037829161
