Latitude,Longitude,Altitude (m)
22.90452278131372,120.27490096328766,18.681218513965607
22.90452435557348,120.27490301761313,18.684049916386606
22.90452591525676,120.27490505605782,18.686886008501055
22.904527460363557,120.27490707908427,18.68972503167391
22.904528990893876,120.2749090866925,18.69256053757668
22.904530506847717,120.27491107826576,18.695400733172896
22.904532008452836,120.27491305488333,18.698242101192477
22.904533495025962,120.27491501639103,18.701085227847102
22.904534967933635,120.27491696124704,18.703928354501727
22.904536425126047,120.27491889099318,18.70677499842644
22.904537867741976,120.27492080377927,18.709618711292745
22.90453929555367,120.2749227020722,18.71246887248755
22.90454070901664,120.27492458402183,18.71531903368235
22.9045421069921,120.27492644962811,18.71816802245379
22.904543490391085,120.27492829919944,18.72101876986027
22.904544859213587,120.2749301327358,18.72387244832516
22.904546213004096,120.2749319502372,18.726726126790048
22.904547551307097,120.27493375170364,18.72957980525494
22.90454887503362,120.27493553651838,18.73243817341328
22.904550183728144,120.27493730560653,18.73529771399498
22.904551476707404,120.27493905804297,18.73815490972996
22.904552755110185,120.27494079367355,18.741015622735027
22.9045540177977,120.27494251357754,18.743879266798498
22.904555265680976,120.27494421605891,18.746740566015244
22.904556498987773,120.27494590343042,18.74960362386704
22.904557715440518,120.27494757260841,18.752470198988917
22.904558917316784,120.27494922544307,18.75533442926407
22.90456010347778,120.27495086224278,18.75820041817427
22.904561273695755,120.27495248100314,18.76107109677792
22.90456243024828,120.27495408357436,18.76393884432316
22.904563570174506,120.27495566980225,18.766808350503446
22.904564694613228,120.27495723860754,18.76968078774214
22.904565802653405,120.27495879029858,18.772552052557472
22.904566896117107,120.27496032518376,18.775425076007846
22.904567973410025,120.27496184218379,18.778299858093263
22.904569035443192,120.27496334206957,18.781175812602044
22.904570081761094,120.27496482530366,18.784052353322508
22.904571111452697,120.2749662906526,18.786930066466333
22.90457212588455,120.27496773919566,18.78980836582184
22.904573124601132,120.27496917031611,18.79268725138903
22.90457410714694,120.27497058370561,18.795567309379578
22.904575073977472,120.2749719796725,18.798450298428538
22.90457602463723,120.27497335821678,18.80133094263077
22.904576958898446,120.27497471887591,18.804211586833002
22.904577877444396,120.27497606211244,18.80709809315205
22.904578780730592,120.27497738746382,18.809979909777642
22.904579667162736,120.27497869431332,18.812864071249965
22.90458053651307,120.27497998404857,18.815752922415736
22.904581390148135,120.27498125620704,18.81863942873478
22.904582228067934,120.27498250970945,18.821523590207104
22.904583049361435,120.27498374563507,18.824417131066326
22.904583854484155,120.27498496321299,18.827302464962006
22.904584643436095,120.2749861625974,18.83019131612778
22.90458541553398,120.27498734394247,18.833085443198684
22.904586170777808,120.27498850786493,18.835973708152775
22.90458690985086,120.27498965236043,18.83886490416527
22.904587632753124,120.27499077819986,18.84175727260113
22.904588339256854,120.27499188692505,18.84464964103699
22.904589028451014,120.27499297606909,18.847540837049486
22.904589701246632,120.27499404732798,18.850435550332072
22.904590357188198,120.27499509993079,18.85333143603802
22.904590996731226,120.274996133415,18.856223804473878
22.90459161919244,120.27499714901407,18.859119103968144
22.904592225027358,120.27499814549452,18.862015575885774
22.904592814008222,120.274999122548,18.864909116744997
22.904593386818306,120.2750000818705,18.867805588662627
22.904593941863304,120.27500102192022,18.87070499163866
22.904594479370974,120.27500194285132,18.873599118709567
22.904595000480107,120.27500284450963,18.876496176838877
22.90459550450743,120.2750037273577,18.87939557981491
22.90459599145294,120.27500459108715,18.882292637944225
22.90459646086112,120.27500543538963,18.88518910986185
22.904596914098523,120.2750062605735,18.888090271472933
22.90459734957084,120.27500706694714,18.890986743390563
22.90459776750583,120.27500785358542,18.893883801519873
22.90459816813125,120.27500862079674,18.896783204495907
22.904598551674862,120.2750093682727,18.89968377989531
22.90459891813666,120.27501009693844,18.902582596659663
22.90459926660562,120.27501080556047,18.905479654788973
22.904599597992764,120.27501149429297,18.908380816400054
22.90459991184258,120.27501216359849,18.91127963316441
22.90460020838283,120.27501281363124,18.91417669129372
22.90460048693024,120.27501344392863,18.91707843911648
22.90460074794032,120.2750140535656,18.91997549724579
22.90460099095756,120.27501464315885,18.922873727798464
22.904601217348503,120.27501521363351,18.925774889409546
22.90460142460782,120.27501576313935,18.92866901648045
22.90460161501308,120.27501629321823,18.931567247033122
22.904601788108767,120.27501680356177,18.93446723622084
22.904601941389558,120.27501729247396,18.937362535715106
22.904602078499565,120.27501776242173,18.940259593844416
22.90460219784449,120.2750182114007,18.94315899682045
22.904602297830028,120.27501864033596,18.946054296314717
22.904602380733753,120.27501904830243,18.948949595808983
22.90460244541688,120.2750194369961,18.95184841257334
22.904602491879405,120.2750198036417,18.95474019479752
22.904602520121337,120.27502015055197,18.957635494291786
22.90460253059818,120.27502047680179,18.960531379997732
22.90460252239891,120.27502078208282,18.963425507068635
22.90460249597904,120.2750210668576,18.966316703081134
22.90460245179409,120.27502133066358,18.969209071516993
22.90460238893302,120.27502157365494,18.97210143995285
22.90460230739584,120.2750217956775,18.974990877330306
22.90460220809358,120.27502199703964,18.9778820733428
22.90460208988744,120.27502217712461,18.980772096931936
22.90460195300519,120.27502233639497,18.983660361886027
22.904601797674584,120.27502247377143,18.9865492130518
22.90460162389562,120.27502259017909,18.989436891794206
22.904601431440543,120.27502268592633,18.99232222568989
22.904601220764867,120.27502276024222,18.99520638716221
22.904600991413076,120.27502281328094,18.99809406590462
22.904600742246384,120.27502284380904,19.00097412389517
22.90460047485909,120.27502285383089,19.00385652673245
22.904600188795687,120.27502284195886,19.00674186062813
22.904599884056168,120.2750228083471,19.009617815136913
22.90459956018502,120.27502275345819,19.012496114492418
22.90459921718224,120.27502267698375,19.015374413847926
22.90459885550335,120.2750225779987,19.018249195933343
22.904598475148347,120.27502245773647,19.021125150442124
22.9045980752062,120.27502231619708,19.023999932527545
22.904597655904663,120.27502215168452,19.026872369766238
22.904597217699255,120.27502196589481,19.029742462158204
22.904596759906703,120.27502175713192,19.032613140761853
22.90459628412131,120.27502152709188,19.035482646942143
22.90459578760999,120.27502127438703,19.03834453237057
22.90459527242255,120.27502099947992,19.041209935069087
22.90459473833124,120.27502070314146,19.044075923979285
22.90459418442503,120.27502038336729,19.04693605077267
22.904593610703916,120.27502004169924,19.049796177566055
22.904593018306688,120.27501967752055,19.052656890571118
22.904592405639047,120.27501929052288,19.055512327671053
22.904591774067534,120.27501888163133,19.058367178559305
22.9045911222256,120.27501844930404,19.061222029447556
22.904590450796526,120.27501799508288,19.064069845795633
22.90458975955255,120.275017517426,19.066918834567073
22.904589049860217,120.27501701741268,19.069768995761873
22.904588318986438,120.27501649411782,19.07260860514641
22.904587569208786,120.27501594769562,19.075452318012715
22.90458679893296,120.27501537984206,19.07829485845566
22.90458600952551,120.27501478793607,19.08113153678179
22.90458519961988,120.27501417228599,19.083967042684556
22.904584370127107,120.27501353427948,19.08680489343405
22.90458351968065,120.27501287283725,19.089636882066728
22.9045826498748,120.27501218826767,19.092465939641002
22.90458176048181,120.27501148057074,19.09529265236855
22.90458085013513,120.27501074897555,19.09811760646105
22.904579919518035,120.275009994253,19.1009378708601
22.904578969086035,120.2750092156322,19.103758721470836
22.904577998839137,120.2750084141924,19.106577227234844
22.904577007183033,120.27500758808344,19.109390457093717
22.9045759963953,120.2750067399264,19.112201342105866
22.90457496465388,120.275005866946,19.1150128133297
22.904573912186528,120.27500496975897,19.117817836225036
22.904572839676515,120.27500404975297,19.120619928061963
22.904571746440574,120.27500310507779,19.123423192322257
22.904570632706456,120.27500213712106,19.12621883583069
22.90456949779089,120.27500114387844,19.129013893127443
22.904568343288187,120.27500012781684,19.131807778000834
22.904567167604032,120.27499908770278,19.134594628334046
22.904565971193946,120.2749980226112,19.137380306243898
22.904564754285687,120.2749969339297,19.140164811730386
22.90456351619598,120.27499582027068,19.142944041311743
22.904562257380345,120.27499468317593,19.145719753623013
22.904560978066534,120.27499352110365,19.148493121087554
22.904559677115763,120.27499233374547,19.15126297128201
22.90455835635009,120.27499112310575,19.15402871799469
22.90455701326418,120.27498988733431,19.156789775013927
22.904555649452345,120.27498862673953,19.159551418244842
22.904554264686816,120.27498734147555,19.162304854512218
22.904552858512083,120.27498603169659,19.16505770456791
22.90455143183918,120.2749846969401,19.1678076235652
22.90454998398483,120.2749833376686,19.170552266657353
22.904548514265755,120.27498195249447,19.17329222005606
22.90454702336524,120.27498054295954,19.17603158724308
22.90454551196655,120.27497910844707,19.17876509231329
22.90454397756435,120.2749776486487,19.181492735266687
22.90454242266398,120.27497616387278,19.184222136855126
22.90454084680992,120.2749746535026,19.18693981420994
22.904539248635626,120.27497311753815,19.189656905353072
22.904537629279886,120.27497155690453,19.19237282407284
22.90453598851494,120.27496997036828,19.195082880675795
22.90453432542976,120.2749683585461,19.197785902738573
22.904532640479864,120.27496672159222,19.200487752377988
22.904530934804036,120.27496505842736,19.20318725717068
22.904529206807975,120.27496336951403,19.205877968788148
22.90452745717495,120.27496165562316,19.208566335558892
22.90452568567721,120.2749599155213,19.21125118505955
22.90452389185923,120.27495814890005,19.213928413808347
22.904522076632052,120.27495635699293,19.21660271149874
22.90452023908464,120.27495453949153,19.219274078130724
22.904518380583536,120.27495269547077,19.22193841022253
22.90451649885117,120.27495082554738,19.224596880197527
22.904514595254085,120.27494892910461,19.227255350172523
22.90451266888125,120.2749470070676,19.229905613183977
22.904510721326968,120.27494505820285,19.232552358925346
22.904508751452454,120.27494308374382,19.235196759819985
22.90450675857443,120.27494108214871,19.237831195116044
22.904504743831694,120.27493905449678,19.24046387177706
22.904502706996478,120.27493700017132,19.24309068632126
22.90450064738551,120.27493491948067,19.245709880113605
22.904498565226557,120.27493281242484,19.24832555663586
22.90449646211391,120.2749306783871,19.25093888831139
22.904494334631213,120.27492851782999,19.253542840600016
22.9044921852838,120.27492632998262,19.25614151698351
22.904490013388394,120.2749241154617,19.258736089885236
22.904487818033964,120.27492187411306,19.261327145516873
22.90448560081482,120.27491960609086,19.263909994184974
22.904483360592167,120.2749173107784,19.266489911794665
22.90448109782152,120.27491498802148,19.269065139710904
22.904478811591854,120.27491263828266,19.271630988240243
22.904476502814198,120.27491026156191,19.274191560864452
22.904474171944067,120.27490785801345,19.276749788641933
22.90447181647612,120.27490542624962,19.279297464609147
22.904469439143462,120.2749029671955,19.281842795729638
22.90446703903505,120.27490048177621,19.28438460958004
22.90446461478435,120.27489796752484,19.286913526773453
22.90446216866893,120.27489542629154,19.289440099120142
22.904459698411213,120.27489285699706,19.29196315419674
22.904457205377746,120.27489026087486,19.294476829886438
22.904454688657502,120.27488763622893,19.296982298612598
22.90445214916151,120.27488498383016,19.299487767338753
22.90444958597874,120.27488230383277,19.301980925619603
22.904446999564705,120.27487959608254,19.304471152842048
22.904444389008376,120.27487685996277,19.306956104159358
22.904441756131813,120.27487409609019,19.309432262301446
22.904439100023986,120.2748713041564,19.311899041056634
22.90443641931835,120.27486848369891,19.31436464738846
22.904433715381455,120.27486563471767,19.316822046756748
22.904430987302263,120.27486275813779,19.319272411584855
22.90442823644732,120.27485985334253,19.321716914296154
22.904425461222328,120.27485691909847,19.324154968678954
22.904422662310555,120.27485395756412,19.326585402309895
22.904419839939763,120.27485096658094,19.32901056003571
22.90441699297116,120.27484794738241,19.33142809700966
22.904414122999054,120.27484489950595,19.33383625459671
22.904411228429137,120.27484182325995,19.336237963855268
22.904408310172442,120.27483871741093,19.3386373282671
22.904405367545696,120.27483558334654,19.34102320981026
22.904402401232172,120.27483242029588,19.34340616029501
22.904399410548596,120.27482922841313,19.345780903816227
22.90439639595048,120.27482600723572,19.34814685416222
22.904393357210076,120.2748227573804,19.35050811481476
22.904390293871863,120.27481947792208,19.352861168503765
22.904387206391352,120.27481616947748,19.35520660144091
22.90438409476855,120.27481283142986,19.357543827414514
22.904380958775697,120.2748094650127,19.359875777482987
22.90437779772952,120.27480606806742,19.362197761952878
22.904374612996563,120.2748026427526,19.36451153945923
22.904371403210284,120.27479918706386,19.366818282425406
22.90436816928171,120.27479570238884,19.36912033569813
22.90436491052757,120.27479218764827,19.371410078525546
22.90436162717562,120.27478864392141,19.37369454544783
22.90435831877035,120.27478506997483,19.37597432267666
22.904354986222785,120.27478146627104,19.378240617036823
22.90435162884965,120.27477783281006,19.38050104928017
22.904348246650954,120.27477416928353,19.382756205618385
22.904344839171173,120.27477047599982,19.38499846529961
22.904341407321343,120.27476675234217,19.3872354490757
22.904337949962674,120.27476299846478,19.38946715694666
22.904334468006194,120.27475921483021,19.39168479573727
22.90433096031312,120.27475540143845,19.393898331046106
22.904327428477753,120.27475155721022,19.396104831814768
22.904323871816818,120.27474768291643,19.39829843592644
22.90432028850826,120.274743777632,19.40048266065121
22.90431668082965,120.27473984212781,19.402664540529255
22.904313048097713,120.2747358765581,19.40483352375031
22.904309389401423,120.27473188015189,19.406991955161097
22.90430570587957,120.27472785260086,19.40914804172516
22.904301997076633,120.2747237948301,19.411292404055597
22.9042982625371,120.27471970683959,19.413423869729044
22.904294503172,120.27471558739587,19.415552990555767
22.90429071693152,120.27471143742407,19.417671559572224
22.90428690586547,120.27470725538234,19.41977840435505
22.90428306951834,120.27470304404596,19.421879387021068
22.90427920675134,120.27469880063965,19.423973335146908
22.90427531893102,120.27469452639689,19.42605145555735
22.904271404918585,120.27469022070092,19.428128403544427
22.904267465169557,120.27468588386012,19.430195385932926
22.904263500139447,120.27468151587449,19.432245954394343
22.904259508917225,120.27467711674402,19.43429066073895
22.90425549104738,120.274672685852,19.436328918755056
22.904251448124207,120.27466822381514,19.438354280114176
22.90424737855341,120.27466372986254,19.44037260693312
22.9042432827905,120.27465920507346,19.442382726788523
22.904239161290995,120.27465464775192,19.444379363775255
22.90423501428265,120.27465005913136,19.44636896622181
22.904230839715655,120.2746454382867,19.448349189281465
22.904226639867574,120.27464078660556,19.45032120537758
22.904222413371865,120.27463610270031,19.45227797996998
22.904218160228535,120.27463138595424,19.45423006486893
22.904213881120846,120.2746266382175,19.456172184169294
22.90420957582105,120.27462185841085,19.458100234389306
22.90420524341811,120.27461704607171,19.460021836280823
22.904200884367548,120.27461220135429,19.461936403632166
22.904196499580387,120.27460732456694,19.46383455705643
22.904192087462327,120.27460241663476,19.465725675940515
22.90418764846888,120.27459747478247,19.46761151891947
22.90418318328333,120.27459250116861,19.46947801691294
22.90417869145015,120.27458749502229,19.471339239001278
22.904174172058312,120.27458245603512,19.473191667914392
22.90416962601885,120.27457738482384,19.475029441535476
22.90416505401503,120.2745722810801,19.47686018061638
22.904160454452562,120.27456714480387,19.478682126522067
22.90415582755919,120.274561975841,19.48048648607731
22.904151173790435,120.27455677372892,19.482286742150787
22.90414649269078,120.27455153800508,19.484075273990634
22.904141784943505,120.27454627051969,19.48585090917349
22.90413704963757,120.27454096957673,19.487617164969446
22.90413228654522,120.27453563502202,19.489372868955137
22.904127496805245,120.2745302682432,19.491119193553928
22.904122680189886,120.27452486831518,19.492852621495725
22.9041178353326,120.27451943477541,19.49457491141558
22.904112963144414,120.27451396777808,19.49628782194853
22.90410806362533,120.27450846763153,19.497989594459536
22.904103136092075,120.27450293448997,19.499680228948595
22.90409818145568,120.27449736711993,19.501362070262434
22.904093199260625,120.27449176675488,19.503026911437512
22.904088189051404,120.27448613324061,19.504683545649055
22.90408315151128,120.27448046549787,19.50633314532042
22.904078085273717,120.27447476414338,19.50796515864134
22.904072992160767,120.27446902886878,19.509588378787043
22.90406787080589,120.27446326075334,19.511201633334164
22.904062721664598,120.27445745779268,19.512800232589246
22.904057544736894,120.27445162152864,19.514387693822385
22.904052339111747,120.27444575134449,19.51596870672703
22.90404710524467,120.27443984677768,19.51752978843451
22.904041844046695,120.27443390829076,19.51908383560181
22.904036553468003,120.27442793542117,19.520626744747165
22.904031235330656,120.274421929094,19.52215675723553
22.90402588895138,120.2744158883842,19.523674459278585
22.904020514330174,120.27440981313754,19.525180437088014
22.90401511078377,120.27440370350821,19.52667644929886
22.90400967876768,120.27439755918786,19.52815722000599
22.904004218965174,120.27439138079322,19.529627438902857
22.90399873000971,120.27438516801591,19.531087105989457
22.903993212356806,120.27437892070176,19.532531531572346
22.90398766555094,120.27437263823404,19.53396657776833
22.903982090730903,120.27436632153784,19.535389313519005
22.903976487213423,120.27435997045897,19.5367956353426
22.903970854542983,120.27435358438072,19.538191991567615
22.903965193175104,120.27434716299472,19.53958072704077
22.903959502654264,120.2743407067635,19.54094894510508
22.903953782980462,120.2743342163038,19.542307197570803
22.90394803392595,120.27432769053635,19.54365782928467
22.903942256857263,120.27432112992369,19.544989702224733
22.903936449269075,120.2743145338491,19.546312195777894
22.903930613211198,120.27430790262092,19.547620620250704
22.90392474754485,120.27430123623918,19.548913803219797
22.903918852725543,120.27429453485804,19.55019877922535
22.90391292875328,120.27428779832333,19.551467341303827
22.903906974944782,120.27428102632669,19.55272535157204
22.903900991072298,120.27427421855974,19.55396694791317
22.903894977819096,120.27426737548504,19.555198578655723
22.903888934957422,120.27426049725676,19.55641965758801
22.90388286271503,120.274253583104,19.55762197774649
22.903876761091926,120.27424663395185,19.558812573671343
