Latitude,Longitude,Altitude (m)
22.901875298387026,120.2740280224232,20.13250852443278
22.901883125858305,120.27403083196035,20.13264340944588
22.90189104345662,120.27403359189843,20.132737341418864
22.90189904912427,120.27403630223746,20.132791457936168
22.901907142449726,120.27403896327093,20.132805758997797
22.901915323844523,120.2740415749988,20.132779107019303
22.90192359289712,120.27404413756787,20.132711339488626
22.901931947961362,120.27404665024439,20.132602293893694
22.90194038841994,120.27404911405556,20.132452132746575
22.901948914890166,120.2740515284144,20.13226036851108
22.901957526343192,120.27405389405466,20.132027326211333
22.901966221750165,120.27405621053609,20.13175154323876
22.90197500131686,120.27405847800543,20.131434969738127
22.901983863808656,120.2740606961692,20.131076305612922
22.901992809431327,120.27406286590785,20.130674413278697
22.902001836744482,120.27406498648767,20.130230755344034
22.902010945336585,120.27406705893587,20.129744194224475
22.902020136236484,120.27406908222524,20.12921521745622
22.902029406974943,120.27407105738297,20.128644637599585
22.90203875714042,120.27407298411559,20.128031967118382
22.902048187556,120.27407486212961,20.127375905916093
22.90205769616399,120.27407669215874,20.126678566649556
22.902067283787456,120.27407847376276,20.125940274342895
22.902076948780252,120.2740802070884,20.125158103778958
22.902086691553915,120.27408189316287,20.124335955247282
22.902096510873825,120.27408353081222,20.123471716091036
22.902106406534216,120.27408512091692,20.12256733645499
22.90211637771201,120.27408666347696,20.121621191218495
22.90212642378989,120.27408815805211,20.12063523052633
22.90213654497364,120.27408960566957,20.11961042945087
22.902146739617095,120.27409100559564,20.118545487895606
22.902157008749104,120.27409235885749,20.11744186846912
22.902167349900434,120.27409366457469,20.11630070875585
22.902177765128776,120.27409492392118,20.115122171267867
22.902188251141826,120.2740961360165,20.11390706856549
22.902198809174195,120.27409730159434,20.11265605069697
22.90220943716819,120.2740984212417,20.1113696051985
22.902220136358423,120.27409949378463,20.110050169751048
22.902230906127595,120.27410052083731,20.10869709430635
22.902241744006467,120.27410150151927,20.10731297905743
22.90225265184696,120.27410243671096,20.105897986516357
22.902263628208697,120.27410332597218,20.10445439185202
22.902274671033975,120.27410416959638,20.10298203255236
22.902285782586265,120.27410496817056,20.101484483882786
22.90229695998479,120.27410572096099,20.09996207086742
22.902308204052623,120.27410642972859,20.098416418626904
22.9023195139667,120.27410709344615,20.096848989769814
22.902330890138547,120.27410771226043,20.09526335956156
22.902342329687396,120.27410828690513,20.09365985302627
22.902353834259404,120.27410881723351,20.09204123286903
22.902365403031492,120.27410930383255,20.09040977425873
22.902377034357503,120.27410974640875,20.088767589852214
22.902388729472055,120.27411014525562,20.087117442354558
22.902400485905915,120.27411050096009,20.085461606934665
22.90241230448216,120.2741108138157,20.083803496345876
22.902424183966172,120.27411108323543,20.082145385757087
22.90243612518103,120.2741113109802,20.080490037873385
22.902448127303657,120.27411149528913,20.078840702936052
22.902460188687897,120.27411163762963,20.077200143650174
22.90247230933375,120.27411173814842,20.07557209779322
22.902484488418132,120.27411179728576,20.073960303142666
22.90249672676413,120.27411181416119,20.072367522403596
22.902509022314046,120.27411179038886,20.070797980889676
22.902521376714034,120.27411172523506,20.06925460381806
22.902533787494864,120.27411161958027,20.06774177901447
22.902546254656528,120.27411147342445,20.066262756720185
22.902558777787497,120.27411128720789,20.064821762248872
22.902571357710844,120.274111061224,20.063422208353877
22.902583991957332,120.27411079503261,20.062069782957433
22.902596680938508,120.27411049010114,20.06076546113193
22.902609423419747,120.27411014584258,20.059515905871987
22.90262222063567,120.27410976240371,20.05832420490682
22.90263507094012,120.27410934110522,20.05719312094152
22.902647974333103,120.27410888091988,20.056127529338003
22.90266092999153,120.2741083828749,20.055131492897868
22.90267393791541,120.274107847704,20.054208099350333
22.90268699728166,120.27410727496697,20.05336043642461
22.902700106855665,120.27410666495724,20.05259240441024
22.90271326828358,120.27410601796836,20.051906603500246
22.90272647950771,120.27410533502749,20.051305633887647
22.90273973970498,120.27410461569441,20.05079290832579
22.902753050110004,120.2741038605561,20.050369564399123
22.902766408665087,120.27410307019952,20.050038202300666
22.90277981660485,120.27410224418445,20.049799634590745
22.902793271048512,120.2741013832446,20.049653861269356
22.902806774053776,120.27410048826042,20.04960234494507
22.9028203252091,120.27409955864495,20.049644110545515
22.90283392204525,120.2740985948384,20.04977867053449
22.902847564973765,120.27409759757451,20.050005374863744
22.902861253171565,120.274096567587,20.050319835707544
22.90287498828481,120.27409550384861,20.05072091548145
22.90288876619811,120.2740944076801,20.051206176504493
22.90290259102685,120.27409327937491,20.051769605830312
22.902916458244107,120.27409211878631,20.052408440753815
22.90293036990757,120.27409092650127,20.053116018280388
22.902944325194166,120.27408970340026,20.053888600632547
22.902958322457735,120.27408844904303,20.054719687327744
22.90297236252136,120.27408716372308,20.055602615371345
22.90298644538504,120.27408584846759,20.056532671913505
22.903000567756457,120.2740845029831,20.05750221888721
22.90301473292793,120.27408312770983,20.058506543442608
22.90302893884176,120.27408172323474,20.05953979514539
22.90304318467487,120.27408028955784,20.06059482346475
22.903057470427264,120.27407882741284,20.061667078062893
22.903071795275856,120.27407733709323,20.062752983674407
22.90308616004373,120.27407581845226,20.06384701488912
22.90310056349627,120.27407427193017,20.064945433929562
22.903115003987313,120.27407269855415,20.066045803114772
22.903129483163024,120.27407109788398,20.067145197227596
22.903143999377242,120.2740694708001,20.068241341099142
22.903158553453043,120.27406781700904,20.069333584681154
22.903173144155815,120.27406613739124,20.070421277925373
22.9031877698394,120.27406443194674,20.071503770783544
22.90320243214995,120.27406270096897,20.07258122576773
22.903217130264395,120.27406094533843,20.073654130414127
22.903231862536572,120.27405916476161,20.074723134770988
22.90324662937802,120.27405735953201,20.0757892139107
22.90326143078875,120.27405553053008,20.07685383044183
22.903276266768746,120.27405367760907,20.077918771997094
22.903291134437247,120.27405180164945,20.078984851136802
22.903306036263483,120.27404990177077,20.0800536929816
22.903320970189757,120.27404797973391,20.081127085164187
22.903335934981456,120.27404603509868,20.08220681531727
22.90335093351935,120.27404406815853,20.083294671073556
22.90336596209959,120.27404207920698,20.084390652433036
22.90338102195679,120.27404006897773,20.085497684612868
22.903396112679413,120.2740380368838,20.086616417661308
22.90341123344438,120.27403598424587,20.087748151674866
22.90342638301708,120.27403391121071,20.088893536701796
22.903441562220582,120.27403181719133,20.090054847911
22.903456770231813,120.27402970350842,20.091231597766278
22.903472007050773,120.27402756986848,20.092425898924468
22.903487271854384,120.27402541671177,20.093637588873506
22.903502563819565,120.27402324462523,20.0948679677099
22.903517884592475,120.27402105331538,20.096117685481904
22.903533230469264,120.27401884307572,20.09738690470159
22.903548602684545,120.27401661522694,20.0986767629534
22.90356400164986,120.27401436888856,20.099986122652886
22.90357942571905,120.27401210464755,20.101317421481014
22.90359487489212,120.2740098230909,20.102670659437774
22.90361034916907,120.27400752421862,20.104044211402535
22.903625848138354,120.27400520832416,20.105440677568314
22.903641370976903,120.27400287540755,20.10685973291099
22.903656915627014,120.27400052605573,20.108300402358175
22.903672484969462,120.27399816085571,20.109764798566697
22.90368807694656,120.27399577951397,20.11125113390386
22.90370368991214,120.27399338247076,20.1127610334903
22.903719325923902,120.27399096987283,20.114293197229504
22.903734983335692,120.27398854186688,20.115847787633538
22.903750661324434,120.27398609918667,20.11742772991955
22.903766358655503,120.27398364183219,20.11902977384627
22.90378207820968,120.27398116980342,20.12065538202226
22.90379781587157,120.27397868368735,20.12230374188721
22.90381357411041,120.273976182897,20.1239758285135
22.90382935128004,120.2739736688998,20.125671641901135
22.903845146145848,120.27397114125552,20.127391019538045
22.90386095994245,120.27396859981742,20.129132823839782
22.90387679020061,120.2739660456127,20.13089786736667
22.903892637743404,120.27396347790764,20.132687287703156
22.90390850257084,120.2739608978762,20.134499297216536
22.90392438385983,120.27395830507812,20.136333733394743
22.903940281198842,120.2739557003939,20.138192221358416
22.903956192118642,120.27395308323652,20.140074111059306
22.903972119911536,120.2739504538995,20.141977614864707
22.903988062519836,120.27394781296981,20.143904845431447
22.904004018297382,120.27394516088765,20.145854502663017
22.904019987655715,120.27394249662585,20.147826911583543
22.904035970594833,120.27393982150508,20.149821747168897
22.9040519667032,120.27393713596558,20.151838359370828
22.904067975569273,120.27393443912689,20.15387756074965
22.904083996781516,120.27393173157597,20.15593951381743
22.90410002910531,120.27392901360632,20.158022105917333
22.904116070482967,120.27392628477769,20.16012679965794
22.904132125441404,120.2739235464108,20.162252619966864
22.904148189042164,120.27392079821213,20.16440054191649
22.904164261696778,120.27391804003496,20.16656959043443
22.904180345462944,120.27391527143904,20.168758627936242
22.90419643828297,120.27391249403856,20.170968466982245
22.904212538099156,120.27390970724655,20.17319845752418
22.9042286469692,120.273906911063,20.17544941212237
22.904244763658486,120.27390410592812,20.177719868168236
22.904260886520856,120.27390129154847,20.180010150685906
22.90427701637939,120.27389846807075,20.18231977213919
22.904293151999468,120.27389563637546,20.18464791996777
22.904309294204168,120.2738927963158,20.186994919195772
22.90432544052426,120.2738899474516,20.189361257359383
22.904341593428974,120.27388709051654,20.191745796874166
22.904357749626,120.27388422580411,20.194147237643598
22.90437390911534,120.27388135243386,20.196567042276264
22.904390073131605,120.27387847128624,20.199003910675643
22.904406241263263,120.27387558192102,20.201458005353807
22.904422410217997,120.27387268609912,20.203928513750434
22.904438582876583,120.27386978117917,20.20641494832933
22.90445475594671,120.27386686950905,20.208918121650814
22.904470931074528,120.27386395020831,20.21143608357012
22.90448710537927,120.27386102415741,20.213969646647573
22.904503281330168,120.27385809135633,20.216517998322843
22.904519456869526,120.2738551504844,20.219080651059745
22.904535631997344,120.27385220227534,20.221657929882408
22.90455180506747,120.27384924863678,20.224248209670186
22.904567978137592,120.27384628692738,20.226852465495465
22.904584149150022,120.27384331905478,20.229469234749676
22.90460031687014,120.27384034487224,20.232099004969
22.904616481709485,120.2738373637928,20.234740151032806
22.90463264325652,120.2738343764034,20.237393810525536
22.904648800688165,120.27383138270407,20.240058358326554
22.904664954827496,120.27382838225458,20.242733631923794
22.90468110320528,120.27382537564189,20.24541881875694
22.90469724623306,120.27382236359972,20.248115218922496
22.904713383087756,120.27381934539434,20.2508208822757
22.904729514180904,120.2738163207323,20.253536296352742
22.90474563951251,120.27381329064076,20.256259511008857
22.904761757024872,120.2738102539458,20.25899198885262
22.904777866306453,120.27380721240833,20.261731942251323
22.904793968591875,120.27380416456091,20.26447855864465
22.904810060588822,120.27380111099053,20.267233300641177
22.904826144766528,120.27379805228416,20.269993405535818
22.9048422190673,120.27379498800155,20.272760173425077
22.904858283491134,120.27379191814273,20.275532466724513
22.904874337626495,120.27378884256093,20.27831044794619
22.904890380650304,120.27378576184314,20.281092491969467
22.90490641256256,120.27378267584261,20.283878436282276
22.90492243171711,120.27377958426585,20.28666941846907
22.904938439348566,120.27377648740635,20.28946300084889
22.9049544329877,120.27377338585109,20.292258533373474
22.904970413869123,120.27377027901309,20.295058128699658
22.9049863815813,120.2737671667456,20.297859024122356
22.905002332831916,120.27376405036931,20.30066138215363
22.905018271736367,120.27376092900377,20.30346406520903
22.90503419335618,120.27375780191527,20.30626837338507
22.905050100983665,120.2737546698375,20.309072844073174
22.905065990914974,120.27375153291723,20.31187568964064
22.905081864796266,120.27374839188815,20.31467788515985
22.905097722216,120.2737452454296,20.31747926811874
22.905113560704937,120.27374209427528,20.320278863444923
22.905129379440005,120.27373893827844,20.323076346114277
22.905145181301975,120.27373577802607,20.325871553614736
22.905160963410076,120.27373261263769,20.328662860825656
22.90517672699892,120.27372944284703,20.331450755283235
22.905192469599278,120.27372626880084,20.334234586939214
22.90520819038807,120.27372308917842,20.337014030769467
22.90522389224607,120.27371990588742,20.33978827421367
22.905239569823273,120.27371671848763,20.342557642295954
22.905255226823524,120.27371352536488,20.34532164748013
22.90527086201221,120.27371032783984,20.348078014597295
22.905286472097018,120.27370712649949,20.350828206256033
22.905302059135643,120.27370392105034,20.353571084871888
22.90531762271655,120.27370071075867,20.35630730049312
22.90533315995896,120.27369749577124,20.35903490297496
22.905348674566724,120.2736942769685,20.361754379853604
22.90536416242446,120.27369105391023,20.36446491856873
22.905379624355238,120.2736878265964,20.367166519120335
22.905395057889827,120.27368459458681,20.36985820643604
22.90541046632054,120.27368135861516,20.37254095558822
22.905425845943522,120.27367811794774,20.37521249140799
22.905441197581855,120.27367487346501,20.377873626455663
22.90545652041246,120.27367162428652,20.380523710682986
22.905471814846877,120.27366837129271,20.383162419065833
22.905487078004327,120.27366511477707,20.385788451507686
22.90550231400021,120.27366185356567,20.388402295544743
22.905517517072973,120.27365858721826,20.391004438713193
22.905532688457235,120.27365531793602,20.39359374342859
22.905547828564536,120.27365204381124,20.396169397130606
22.905562936983337,120.27364876601791,20.398731562331317
22.905578013713637,120.27364548440926,20.401280076518653
22.90559305669774,120.27364219854506,20.403814777180553
22.90560806470103,120.2736389079851,20.40633403919637
22.9056230397812,120.27363561463704,20.408839487686752
22.905637979469024,120.27363231600623,20.411329009994862
22.905652884587568,120.27362901444056,20.41380455626547
22.905667755136843,120.27362570832587,20.416263038769365
22.905682585355297,120.27362239898284,20.418706407651303
22.905697382239094,120.27361908435707,20.421133850350977
22.905712141672844,120.27361576679642,20.423543579235673
22.905726859952697,120.27361244527374,20.425937544450164
22.905741543663275,120.2736091190553,20.42831542097032
22.90575618786611,120.27360578990198,20.43067623372376
22.905770790915053,120.27360245619965,20.433019007638094
22.905785356102406,120.27359911882874,20.435344230249523
22.905799880135863,120.27359577830288,20.437650926485656
22.905814363015423,120.27359243286112,20.43994120900333
22.905828804741088,120.2735890839709,20.442212965145707
22.905843205312852,120.27358573111864,20.44446700747311
22.905857561438406,120.27358237562501,20.446700573280452
22.90587187805622,120.27357901484864,20.448917725369334
22.905886147758594,120.27357565077054,20.451115376010538
22.905900373837834,120.27357228339073,20.453294175252317
22.905914556293943,120.27356891219563,20.455454448118804
22.90592869512692,120.27356553681834,20.457594406977297
22.905942786221377,120.27356215799261,20.459715676948427
22.90595683122347,120.27355877645213,20.461818095520137
22.905970831779353,120.27355538984902,20.4639013376683
22.90598478212748,120.2735520002377,20.465964265808463
22.9059986880294,120.27354860769151,20.468008180037142
22.906012542077406,120.27354521015607,20.470031942769886
22.906026350033052,120.273541810126,20.47203652907908
22.90604010695786,120.27353840672085,20.474020801380277
22.90605381614415,120.27353499847318,20.475985572233796
22.90606747265345,120.2735315877309,20.47793019159138
22.906081079778076,120.27352817346677,20.479855472013355
22.906094635871867,120.27352475494712,20.48176125098765
22.906108140934826,120.27352133363935,20.483646390929817
22.90612159167464,120.27351790924997,20.485511379376053
22.906134989737463,120.2735144810453,20.487356541350483
22.9061483351233,120.27351104961228,20.48918155182898
22.906161624539838,120.27350761509766,20.490987873420117
22.90617485963323,120.27350417720795,20.49277258090675
22.90618804204963,120.27350073579643,20.49453941206634
22.90620116685058,120.27349729145004,20.49628527916968
22.90621423732838,120.27349384343509,20.49801164482534
22.90622724854457,120.27349039299888,20.499718996569513
22.90624020543762,120.27348693852724,20.501406521841883
22.90625310306905,120.27348348075388,20.503074383154512
22.90626594143887,120.2734800207794,20.50472274301946
22.90627872219324,120.27347655757656,20.506351601436734
22.90629144368599,120.27347309129213,20.507960795894263
22.906304104270976,120.27346962148587,20.509550488904118
22.906316703948193,120.27346614969859,20.511123443171382
22.906329244363796,120.27346267424274,20.51267624594271
22.906341722225477,120.27345919599877,20.51420987229049
22.90635413753323,120.27345571540693,20.51572464723885
22.90636648864091,120.27345223173347,20.51722105832398
22.906378778840818,120.27344874549203,20.51869926805794
22.906391004840646,120.27344525653584,20.520158626392483
22.906403166640395,120.27344176398445,20.521599295839668
22.906415265886217,120.27343826974553,20.52302273900807
22.906427295993495,120.27343477286523,20.524428468361496
22.906439260254537,120.2734312734903,20.525817458972334
22.9064511603155,120.27342777103377,20.527187273159623
22.906462991237913,120.27342426637611,20.528539536044
22.906474757960247,120.27342075959068,20.529875547721982
22.90648645225172,120.27341725075084,20.531193683072924
22.90649807740465,120.27341373956311,20.532494267120956
22.906509636711338,120.27341022602751,20.53377941252291
22.906521123587172,120.27340671051088,20.53504911927879
22.906532542970613,120.27340319176591,20.536301274731755
22.906543889923192,120.273399671847,20.53753750400245
22.906555164444914,120.2733961495802,20.538757807090878
22.90656636818193,120.2733926262862,20.539961858972905
22.90657749948809,120.27338909932364,20.541151122257112
22.90658855836339,120.2733855717741,20.54232527191937
22.906599538223205,120.27338204239027,20.543483495399354
22.90661045059063,120.2733785110988,20.544626442745326
22.906621282296417,120.27337497760617,20.545755901589988
22.9066320432175,120.27337144359996,20.546870571836827
22.9066427251231,120.27336790790619,20.547971591070294
22.90665333295168,120.27336436957106,20.549057334169746
22.906663861764784,120.2733608307957,20.55013007630408
22.90667431320856,120.27335729069965,20.551188679888845
22.906684687283004,120.27335375001664,20.552234282508493
22.906694982341968,120.27335020647213,20.553266559138894
22.906705196739296,120.27334666380808,20.554286972388624
22.90671533047498,120.27334311850268,20.555292759552596
22.90672538684134,120.27333957217006,20.556288145944475
22.906735359253748,120.27333602627768,20.557270206347106
22.906745252650676,120.27333247921135,20.558241053417323
