Latitude,Longitude,Altitude (m)
22.901810957149273,120.27406623174686,56.2078622711225
22.90181942250596,120.27407060350757,56.356102575667684
22.901827992393546,120.27407493784888,56.503621410684616
22.901836661873563,120.27407923374358,56.65043848845549
22.901845433415247,120.27408349383305,56.79653409669812
22.901854305372442,120.27408771679659,56.94192794769468
22.901863277745143,120.27409190190049,57.08659244425012
22.901872350121817,120.27409604973174,57.23055912601594
22.90188151962169,120.27410016102404,57.37382799299213
22.90189078953707,120.27410423651109,57.51636356307077
22.90190015575257,120.27410827413851,57.6581934334469
22.90190961867973,120.27411227596069,57.79932154657698
22.901919178730086,120.27411624139066,57.939743960004556
22.901928835080565,120.27412016969471,58.07947644355539
22.901938586908084,120.27412406336748,58.21845986038291
22.90194843215495,120.2741279191806,58.35675334733368
22.901958373701937,120.27413173962871,58.49435690440771
22.90196840825673,120.2741355232444,58.631262646692115
22.901978535407792,120.27413927208204,58.76745480436115
22.901988755566663,120.27414298452747,58.902941262327694
22.901999067498725,120.2741466605807,59.037725963048175
22.902009472850136,120.2741503022961,59.171820733891906
22.902019966682424,120.27415390849977,59.30520586257671
22.902030551464826,120.27415747816448,59.43790106138477
22.902041225551184,120.27416101393162,59.56990238785965
22.90205198935304,120.27416451404027,59.70119012971915
22.902062841224236,120.27416797760995,59.83178794170191
22.90207378157631,120.27417140816252,59.96168005398218
22.902084809586185,120.27417480335008,60.09089012129857
22.902095923196168,120.2741781627324,60.21941420119467
22.902107123640874,120.27418148851062,60.34722469647539
22.902118411743384,120.27418477877708,60.4743492043358
22.90212978379984,120.27418803441226,60.60078772477591
22.902141238987173,120.2741912562966,60.72653631533928
22.902152778951532,120.2741944426692,60.851583148656594
22.90216440328138,120.27419759749209,60.97596370683579
22.902176109919026,120.27420071504233,61.099610968117425
22.902187898452922,120.27420379957542,61.22259589671738
22.902199770940776,120.27420685021094,61.34490666526635
22.90221172203257,120.27420986782934,61.46650779165638
22.902223753786,120.27421285066971,61.587430815538994
22.902235866201075,120.27421579990597,61.707683621827044
22.902248059689324,120.27421871656534,61.82724255578192
22.90226032972382,120.27422159829995,61.94609973249074
22.9022726787738,120.27422444672392,62.0643064038872
22.90228510560465,120.27422726213078,62.18179949066828
22.902297610216365,120.27423004525423,62.29862235985482
22.902310190962787,120.27423279433334,62.41476712653393
22.902322848255462,120.2742355095149,62.53023379070561
22.902335581682845,120.27423819461417,62.64503023728274
22.902348387952625,120.27424084464192,62.759113099244495
22.902361270768655,120.2742434615058,62.872541513437454
22.902374226015546,120.2742460465265,62.98529576757943
22.902387254927913,120.27424859897032,63.097360091844656
22.902400355859598,120.27425111869047,63.20876208342821
22.902413529633684,120.27425360686095,63.319474145135025
22.90242677419247,120.2742560617208,63.42953175907304
22.90244009035904,120.2742584837103,63.53889944313432
22.902453476487235,120.27426087503054,63.647589024688166
22.902466934223213,120.27426323436084,63.75562415847322
22.90248045986312,120.27426556214147,63.86298118975084
22.902494054641572,120.27426785719845,63.96967588834679
22.902507716089342,120.27427011997203,64.07566882969668
22.902521447498735,120.27427235207635,64.18101915064709
22.90253524310821,120.2742745523375,64.28570713891582
22.902549107033153,120.27427672148919,64.38970519730783
22.902563037215874,120.2742788595314,64.49306063530034
22.90257703242175,120.27428096470324,64.59571825850324
22.902591091004627,120.27428304037977,64.69772931885021
22.902605213787584,120.27428508406638,64.79906227668977
22.9026194015937,120.27428709590981,64.89972107447832
22.902633652776817,120.27428907899166,64.99974907923672
22.902647964456165,120.27429103067054,65.09911475131344
22.902662340335592,120.27429295094647,65.19779443596985
22.902676777945864,120.27429484011294,65.29581573040105
22.902691273171595,120.27429669978412,65.39318257706343
22.902705831362784,120.2742985286393,65.48989103350058
22.90272044922713,120.27430032711874,65.58591744497387
22.902735125941543,120.27430209566265,65.681313063417
22.902749860682956,120.27430383324383,65.77603846426557
22.902764652628285,120.27430554221019,65.8701054748889
22.902779503835227,120.27430721933334,65.96351409528701
22.902794411011467,120.27430886886886,66.05625644054699
22.902809374568548,120.27431048612097,66.14836799277683
22.90282439409493,120.2743120746115,66.23980144249921
22.902839468355996,120.27431363448719,66.33057255953995
22.902854598586362,120.27431516369363,66.4207325958327
22.90286978313987,120.27431666340478,66.51021452961803
22.90288501954729,120.27431813420759,66.59903413072168
22.902900309866318,120.27431957463466,66.68720716896941
22.902915653273872,120.27432098776758,66.77473758681766
22.90293104565456,120.27432237023125,66.86163326917932
22.902946493593017,120.27432372437356,66.94785084903354
22.90296198926999,120.27432504799339,67.03342975094472
22.902977536800876,120.27432634637344,67.1183542050871
22.902993133716436,120.27432761276359,67.20264392374288
22.903008779193595,120.27432885171282,67.28628313708631
22.903024473232357,120.2743300636614,67.36925213283519
22.903040215421175,120.27433124494071,67.45160216292321
22.903056004936975,120.27433239848567,67.53327014804736
22.903071843837452,120.27433352400274,67.61434282224931
22.90308772636106,120.27433462105171,67.69475710622602
22.9031036545655,120.27433569051306,67.77452482734681
22.90311962845076,120.27433673165302,67.85364598561168
22.903135648428385,120.27433774271074,67.9321284659335
22.90315170955991,120.27433872823521,68.00995255603009
22.9031678167838,120.2743396857318,68.08715768046584
22.903183965984663,120.27434061564077,68.16372412695853
22.90320015880866,120.27434151840231,68.23965189550819
22.903216390728854,120.27434239475015,68.31492127383261
22.903232667506803,120.27434324072225,68.38955985912688
22.903248984204026,120.27434406174807,68.46355582402165
22.903265339997457,120.27434485459926,68.53694070816846
22.903281737356323,120.27434561927586,68.60966720209004
22.90329817339985,120.27434635959315,68.68178261526363
22.903314647716503,120.27434707070864,68.75324752312487
22.903331158660126,120.2743477549702,68.82408558041239
22.90334770911149,120.27434841340502,68.89424947764891
22.90336429618982,120.27434904542615,68.96382200641966
22.903380918660506,120.27434964985963,69.03274797233449
22.903397577346617,120.27435022802617,69.10105497258847
22.90341427183662,120.27435078080619,69.16871935244298
22.9034310008959,120.27435130497138,69.235741111898
22.90344776534753,120.27435180536423,69.30216756043079
22.903464564368434,120.27435227934339,69.36792773382548
22.903481392608604,120.27435272646862,69.43308076892863
22.903498255418047,120.27435314747365,69.4976108959145
22.903515150327532,120.27435354294542,69.56151022987021
22.90353207898321,120.27435391171001,69.62477088588287
22.903549034388927,120.27435425655553,69.68740863377823
22.903566022717758,120.27435457366666,69.74943530092564
22.90358304273509,120.27435486832616,69.81082329012999
22.903600086621683,120.27435513407731,69.87157654384775
22.90361716466601,120.27435537678986,69.93173054418685
22.903634269048833,120.27435559264848,69.99125375149578
22.903651402239383,120.27435578385432,70.05015799314386
22.903668561768427,120.2743559518748,70.10842749930535
22.903685746401347,120.27435609216089,70.16608198226241
22.90370295901892,120.27435620940837,70.22311749955864
22.903720198798062,120.27435630024213,70.27954587856333
22.90373746080031,120.27435636789056,70.33533163716852
22.903754745848744,120.2743564095655,70.39050237256932
22.903772058881824,120.27435642849532,70.44507385459146
22.903789392491856,120.27435642057121,70.499010601127
22.903806750794224,120.274356389315,70.55233626691457
22.903824131731238,120.27435633428647,70.60504296704127
22.903841530364424,120.27435625372468,70.6571464713329
22.90385895451303,120.27435614997754,70.70862312505079
22.903876398003966,120.27435602275155,70.75947292819495
22.90389386207185,120.2743558705793,70.80973136287334
22.903911344247447,120.27435569522169,70.8593432346958
22.903928847411535,120.27435549403734,70.90838739279113
22.903946369506418,120.27435527157529,70.95679681539984
22.903963907651317,120.27435502607463,71.00461092708633
22.90398146513855,120.27435475401353,71.05179030328624
22.903999036618107,120.27435446082147,71.09838225347679
22.904016627439994,120.27435414444405,71.14435129555005
22.904034233077287,120.27435380282687,71.18969742950603
22.904051855999214,120.27435344037222,71.23446796482199
22.90406949167885,120.2743530539985,71.27859193728202
22.904087140939275,120.27435264429268,71.32212454127627
22.9041048050151,120.27435221257544,71.36505789189187
22.904122482260174,120.27435175664563,71.40738804667237
22.90414017390911,120.2743512769435,71.44910317824846
22.904157874200365,120.27435077728437,71.49021511398945
22.90417558766087,120.27435025458661,71.53072385389535
22.90419331387908,120.27434970899697,71.57062151305328
22.904211048739608,120.27434913978175,71.60991597637612
22.904228793888613,120.27434854958231,71.64863089860249
22.904246548091475,120.2743479375182,71.68670714288581
22.904264310936654,120.27434730168177,71.72422355835486
22.904282083658767,120.27434664574157,71.76110918079377
22.904299864611662,120.27434596720298,71.79740343476688
22.90431765214918,120.27434526562578,71.83309055044845
22.90433544668286,120.27434454379808,71.86819418257713
22.90435324697809,120.27434379922524,71.90269067641427
22.9043710534464,120.27434303410841,71.93658003195988
22.904388865264718,120.27434224580624,71.96988984640902
22.90440668325612,120.27434143710681,72.00258858011019
22.90442450165906,120.27434060742317,72.03469200288914
22.904442327469702,120.27433975587485,72.06620799965876
22.904460152868808,120.27433888480975,72.0971129156804
22.904477984440994,120.27433799143974,72.12744617551846
22.904495815190106,120.27433707561809,72.1571762395214
22.904513650877682,120.2743361401329,72.18629916523284
22.904531484919104,120.2743351849842,72.21485043476068
22.904549320606684,120.27433420650338,72.24277091125835
22.904567155059645,120.27433320923949,72.27011973157244
22.904584989924142,120.27433219055115,72.2968929532465
22.90460282314249,120.27433115175906,72.32306297908546
22.904620655537755,120.2743300938904,72.34865346382796
22.90463848422917,120.27432901268965,72.37364863764824
22.90465631497828,120.2743279140265,72.39804061563343
22.904674138319688,120.27432679467262,72.4218688223479
22.904691957957247,120.27432565404104,72.44509383322729
22.904709773479414,120.27432449477313,72.46772353318445
22.90472758570927,120.27432331540145,72.48978157695804
22.904745391766042,120.27432211636625,72.5112443098094
22.90476319247281,120.27432089678706,72.53211961665141
22.904780984948793,120.27431965725084,72.55242326730985
22.904798772486313,120.27431839922505,72.57212766458962
22.904816554262286,120.27431712109549,72.59125252077293
22.904834324926707,120.27431582623726,72.60979389340334
22.904852090241118,120.27431450922086,72.62775966739372
22.90486984485552,120.27431317312791,72.64512618800545
22.904887590827602,120.27431181839862,72.66191316752071
22.904905323218898,120.27431044473951,72.67812849085239
22.90492304902557,120.27430905171036,72.69376821554404
22.90494076372069,120.27430764151231,72.70882051422635
22.90495846895041,120.27430621135723,72.72327750198644
22.904976157307036,120.27430476183211,72.73716677601938
22.904993835786726,120.27430329499134,72.75050410615093
22.905011500274092,120.27430181010122,72.7632303555345
22.90502915241529,120.27430030525407,72.77537312136518
22.905046789741082,120.27429878235756,72.78696000083802
22.905064413486087,120.27429724214541,72.79795945430152
22.905082019946455,120.27429568329693,72.80837936666856
22.90509960953373,120.27429410639908,72.81824339267776
22.90511718718637,120.27429251130513,72.8275278775905
22.905134746731296,120.27429089786833,72.83620128175527
22.905152288580048,120.27428926843658,72.84434639675727
22.905169812732623,120.27428761860756,72.85190014329349
22.905187318365943,120.27428595366405,72.85888617610257
22.905204804656933,120.27428427081793,72.86528084044588
22.905222274486363,120.2742825705094,72.87111567597489
22.905239723327306,120.27428085229826,72.8763749128639
22.905257152825918,120.27427911603777,72.8810822058515
22.905274556397572,120.27427736436928,72.88521390019908
22.905291942273053,120.27427559391771,72.88876999590663
22.905309306336967,120.27427380791141,72.89175049297417
22.905326648177777,120.27427200429598,72.89416327631454
22.905343967383942,120.2742701833649,72.89600046101489
22.905361263543927,120.27426834629212,72.89728570181386
22.905378534188493,120.27426649307763,72.89800322888567
22.90539578055226,120.27426462210727,72.89814515731746
22.905413005104464,120.27426273631588,72.89772725693497
22.905430201672015,120.27426083291536,72.89674164282535
22.90544737231261,120.27425891366661,72.89518831498856
22.905464516614714,120.27425697724898,72.89306727342463
22.905481632932165,120.27425502601031,72.89038640304643
22.90549872414574,120.27425305672229,72.88714570385396
22.90551578572851,120.2742510734937,72.88331363619571
22.9055328222074,120.27424907412342,72.87896116428757
22.90554982329394,120.27424705846467,72.87405674847804
22.905566798865063,120.27424502739794,72.8685373094641
22.905583743570762,120.274242980483,72.86248958128739
22.905600659057196,120.27424091830679,72.85586625447066
22.90561754326667,120.2742388407226,72.84870675357828
22.905634396199176,120.27423674787715,72.84095588422014
22.90565121579703,120.27423463933025,72.83265307096059
22.905668001648685,120.27423251552207,72.82383773836403
22.905684757457998,120.27423037821357,72.8144310373017
22.90570147581726,120.27422822373617,72.80443691023002
22.905718161664947,120.27422605517147,72.79391449399559
22.905734815001054,120.27422387295968,72.78284013385976
22.90575143212173,120.27422167299201,72.77119805999678
22.90576801549621,120.27421946201864,72.75899615731953
22.90578455936295,120.27421723372962,72.74624625319731
22.905801066191184,120.27421499296746,72.7329522900866
22.905817537627065,120.27421273753103,72.71910244061803
22.905833973670592,120.27421046639313,72.70469276233521
22.905850368560223,120.27420818219511,72.68972719769455
22.905866723942115,120.27420588376305,72.67420968915249
22.905883043108574,120.27420357109692,72.65814812162192
22.905899321944215,120.27420124449024,72.64150701299488
22.905915559625956,120.274198903943,72.6243612699437
22.905931756153805,120.27419655062914,72.60663598579607
22.905947913173907,120.27419418249426,72.5883429879213
22.905964024924724,120.27419180115253,72.56954535562238
22.905980099637034,120.27418940763114,72.55017212468344
22.905996129903137,120.2741869981148,72.53024694984312
22.90601211489995,120.27418457759275,72.50980531320933
22.90602805709671,120.27418214239641,72.48876836565333
22.906043958962652,120.27417969472695,72.467207071391
22.90605981062084,120.27417723282343,72.44510566059661
22.906075617832816,120.2741747591805,72.4224404785315
22.90609138142166,120.27417227306442,72.39925094976006
22.906107098095063,120.27416977344802,72.37550553463079
22.906122767853024,120.27416726062476,72.35120817560012
22.906138391518617,120.27416473620882,72.32637464249382
22.906153967445693,120.2741621984393,72.30098916548613
22.90616949234193,120.27415964966406,72.27509116914142
22.90618496949965,120.27415708724175,72.24860180433093
22.906200396449616,120.27415451249303,72.22162751737851
22.90621577648414,120.27415192585816,72.19405791950386
22.90623110466475,120.27414932792409,72.16597580229221
22.906246380991455,120.27414671766363,72.13732991380985
22.906261607933477,120.27414409566376,72.10817939090336
22.906276782198514,120.2741414607505,72.07845721181327
22.906291905432717,120.27413881424458,72.04819491619111
22.90630697598993,120.27413615717317,72.01741221631906
22.906321991400922,120.27413348806887,71.98610122728425
22.90633695248877,120.27413080810558,71.95423435189161
22.906351860076548,120.27412811625615,71.92183130242333
22.90636671581042,120.27412541310751,71.88888813642298
22.90638151475191,120.27412269880642,71.85540879634696
22.90639625525487,120.27411997320614,71.82140510956465
22.906410943080836,120.2741172367469,71.78685342133737
22.906425572468272,120.27411448942868,71.75176950149088
22.90644014094794,120.2741117325722,71.71614940756876
22.906454655927536,120.27410896294909,71.68001285185319
22.90646911329168,120.27410618452141,71.64329675504115
22.906483510571135,120.27410339420757,71.60609573608718
22.9064978477659,120.27410059391521,71.56833883077537
22.90651212569905,120.27409778379109,71.53006152121368
22.906526341078276,120.27409496339499,71.49123621020703
22.90654050131128,120.27409213199317,71.45189837986338
22.906554592405737,120.27408928973237,71.41202043298765
22.906568627530895,120.27408643808006,71.37161419694914
22.906582600925205,120.27408357732968,71.33067572929144
22.9065965076502,120.27408070616058,71.28922474229672
22.906610352644353,120.2740778261869,71.24720998403131
22.906624135084577,120.27407493564773,71.20468270642888
22.906637852501646,120.27407203542356,71.16162319720725
22.90665150407248,120.27406912830247,71.11803539882285
22.906665091443234,120.27406620797453,71.07394690847077
22.906678612967752,120.27406328045619,71.02930253176085
22.906692066999877,120.27406034339957,70.98414169325748
22.906705456008844,120.27405739856559,70.93844862313492
22.906718775879266,120.27405444155195,70.89224303367534
22.906732027434217,120.27405147808163,70.84550521259656
22.90674521314293,120.27404850463282,70.79823910235503
22.90675832559771,120.27404552355337,70.75045258786359
22.906771374675486,120.27404253308238,70.7021377842094
22.906784349676244,120.27403953527426,70.65331440367464
22.906797256361536,120.27403652822133,70.60396667643356
22.906810091439045,120.27403351265733,70.55408671757327
22.90682285573185,120.27403048814202,70.50369423937597
22.906835549239954,120.27402745614283,70.4527616446466
22.906848166201808,120.27402441519233,70.40131258812377
22.906860715671268,120.27402136851886,70.34935495472038
22.90687319024064,120.27401831362779,70.29688874443642
22.90688558744068,120.27401524846474,70.24389424498969
22.906897914679096,120.27401217640477,70.19036751392376
22.90691016537126,120.27400909671418,70.13632432106438
22.90692233951718,120.2740060118876,70.08178043623731
22.90693444040916,120.27400291796295,70.02669643487816
22.906946463108735,120.27399981538048,69.97111568400777
22.906958407615907,120.27399670751528,69.91500270151816
22.906970280515296,120.27399359143247,69.85837719969155
22.90698207110689,120.27399046815928,69.8012470634408
22.906993785152235,120.27398733754895,69.74358075311441
22.9070054201821,120.27398420165586,69.68542163573322
22.90701697125801,120.27398105901263,69.62673422918925
22.907028449903063,120.27397790800505,69.56754218822115
22.907039839655695,120.27397475171472,69.50783762791605
22.90705115368516,120.27397158852749,69.44760872090461
22.907062390345295,120.27396841800312,69.38687912192549
22.907073540582246,120.2739652435167,69.32562123378361
22.90708460604217,120.27396205993222,69.26386659613047
22.90709559495584,120.27395887297266,69.20159943914031
22.9071064949771,120.27395567852922,69.13883159018248
22.907117314336716,120.27395247660189,69.07551179732323
22.90712804645007,120.27394927129949,69.01173073706069
22.90713869954794,120.27394605880669,68.9474135027225
22.907149263753393,120.27394284161811,68.88257586413442
22.90715974153566,120.27393961797286,68.81727301568661
22.907170132894745,120.27393638860464,68.7514182233374
22.907180438653725,120.27393315512762,68.68509822112844
22.907190653874128,120.27392991592762,68.61822627501809
