Latitude,Longitude,Altitude (m)
22.903322126529098,120.27348681381292,4.338543888954127
22.903316783154448,120.27348604149238,4.387352068471766
22.903311417413807,120.27348520576851,4.436431727732451
22.90330602948191,120.27348430643448,4.48587982378727
22.903300620145068,120.27348334328343,4.535676965226006
22.90329518914117,120.27348231548788,4.585939500509963
22.90328973725652,120.27348122201354,4.6364929069471845
22.9032842653648,120.27348006327415,4.687414750178539
22.903278772679695,120.27347883833879,4.738685638793811
22.903273260948556,120.27347754638005,4.790228007152128
22.903267729909274,120.27347618750133,4.8421775951250146
22.903262180086056,120.27347476087519,4.8944568370715995
22.903256611478902,120.27347326562247,4.947007558761231
22.90325102574779,120.27347170158804,4.999829760193909
22.903245421320108,120.27347006840985,5.05309796406159
22.903239800642133,120.27346836546734,5.106560082031447
22.903234162578098,120.27346659177792,5.160293679744351
22.903228508351145,120.27346474728985,5.214395714251388
22.903222838660202,120.27346283153771,5.268769228501472
22.903217152981075,120.27346084395262,5.323375439674167
22.90321145236216,120.27345878365543,5.37823373917969
22.903205737240306,120.27345665054268,5.433402301248694
22.9032000073534,120.27345444378695,5.488784168830091
22.903194264186688,120.27345216281934,5.54447629897497
22.903188506953867,120.27344980784673,5.600362343222024
22.903182737227542,120.2734473774728,5.656422910161036
22.903176954396148,120.27344487164584,5.712813131073748
22.903171159595455,120.27344229005554,5.7693584832682
22.90316535291283,120.2734396316676,5.826136532385263
22.903159534785104,120.27343689586142,5.883108495604502
22.903153705911222,120.27343408274045,5.940429504207657
22.903147866203817,120.27343119121865,5.997731121400594
22.903142016449188,120.27342822139944,6.055343001157013
22.90313615743364,120.2734251724554,6.113071229374738
22.90313028810877,120.27342204386936,6.171032154515072
22.90312441083349,120.2734188349173,6.229167602347366
22.903118524122558,120.27341554534064,6.2874581814614
22.903112629548584,120.27341217457051,6.3458457176265215
22.903106727723134,120.27340872198631,6.404388385073384
22.90310081838411,120.27340518748464,6.46314435803264
22.903094902055717,120.27340157018632,6.521958505222548
22.903088979349523,120.2733978696259,6.5809277836941975
22.903083050789725,120.27339408523451,6.639994019216934
22.903077116201597,120.27339021701218,6.699195994611194
22.903071176546177,120.27338626366597,6.75859188410763
22.903065231736093,120.2733822251442,6.817929599373413
22.90305928290712,120.27337810108486,6.877461228741372
22.903053330059258,120.27337389060878,6.937109206570636
22.90304737362934,120.27336959314708,6.996737792989682
22.903041413966843,120.2733652088549,7.056482727870034
22.903035451159127,120.27336073674967,7.116305228391257
22.9030294865167,120.27335617636594,7.176205294553349
22.903023519165895,120.27335152697967,7.236221709176748
22.90301755085405,120.27334678879775,7.296179949569493
22.903011581231695,120.273341960579,7.356176972782674
22.9030056109104,120.27333704216827,7.4162127788162895
22.90299963997754,120.27333203304839,7.476384324721428
22.902993669219416,120.27332693254708,7.536497696395914
22.90298769933496,120.27332174050919,7.596514111019313
22.902981729712607,120.27331645610725,7.656627482693799
22.902975761575494,120.27331107918614,7.71685720282959
22.902969795010993,120.27330560886668,7.776931791683641
22.902963830718033,120.27330004514887,7.837045163358127
22.902957869220824,120.27329438699842,7.897139143622396
22.902951909820427,120.27328863415671,7.957136166835576
22.90294595417682,120.27328278615833,8.017152581458975
22.902940002289995,120.2732768424344,8.077072039031284
22.902934054159957,120.27327080267463,8.136933322372942
22.902928110835116,120.27326466620671,8.196891562765687
22.90292217257757,120.27325843246179,8.256694671876692
22.90291623947468,120.27325210143985,8.316420215346827
22.902910312050658,120.27324567231344,8.376029410355656
22.902904390829704,120.2732391442034,8.435619213954267
22.90289847572445,120.27323251726487,8.495131451912009
22.902892567958034,120.27322579077385,8.554430384357357
22.902886667355727,120.27321896426488,8.613709925392486
22.902880774529095,120.27321203722082,8.672873117966311
22.902874889914976,120.2732050091245,8.731900570668614
22.902869013600732,120.2731978798725,8.79081167490961
22.902863146372674,120.27319064822363,8.849490082227994
22.902857288318167,120.27318331428134,8.908207272366816
22.902851440048778,120.27317587773533,8.966614199942155
22.902845601826613,120.27316833765471,9.024924170466406
22.90283977417587,120.27316069352234,9.083098401119136
22.90283395753339,120.27315294533823,9.141001152028817
22.90282815216127,120.27314509222317,9.198787554477194
22.902821938347746,120.27313667266732,9.27338630958421
22.902813252655555,120.27312527160454,9.452369025892438
22.90279986844562,120.2731076476571,9.84987354394253
22.90278068061091,120.27308166729856,10.534390324622969
22.902757399625408,120.27304925993391,11.425832843735162
22.902731998632422,120.27301409783522,12.386366957452578
22.902705673251347,120.2729790658012,13.312830363417714
22.902679223066308,120.27294466087038,14.18823618627997
22.902653544202114,120.2729103871937,15.036804297401103
22.902629167588916,120.27287580286152,15.885779628136804
22.902604711558983,120.27284037422068,16.765800606630844
22.90257834935266,120.27280342503822,17.694338893489263
22.902549352546362,120.27276469888237,18.652041861314913
22.902520005659913,120.27272578065485,19.532547625064392
22.902493109028754,120.27268910522884,20.205933736279942
22.902470770822124,120.27265712919804,20.58162291783526
22.902454698936676,120.27263280591673,20.6662858148452
22.902446502653397,120.27261932895158,20.528723150761714
22.902446472227787,120.2726187343387,20.269615127434463
22.902449633433232,120.27262849464697,20.02929738060804
22.902450256623084,120.2726440195299,19.909594205334944
22.90244485449403,120.27266187964302,19.931584064521676
22.90243415645252,120.27268244641411,20.02865746407086
22.902419456340475,120.27270780734278,20.13785049500603
22.902401250010126,120.27273926017993,20.23979113851983
22.902380310551504,120.2727751797956,20.33713601781206
22.90235791950959,120.27281285218174,20.42699581276031
22.90233561994108,120.27285040176923,20.492383648013977
22.902315537095483,120.272888465526,20.514334724380273
22.902299545238343,120.27292865494846,20.493198087243115
22.902288705858634,120.27297208404205,20.448617235152906
22.902282167629053,120.27301854310005,20.390792049884094
22.902278816269018,120.273067182332,20.297422409686465
22.902278176959925,120.27311633959894,20.137928060646903
22.902280691342703,120.2731609658049,19.956851072035175
22.90228711739287,120.27319472206715,19.846843601870866
22.90229811929731,120.27321314502036,19.874844798225045
22.902314263260653,120.27321817451617,19.98337852121282
22.902335621295272,120.27321421910135,20.059276500804412
22.902361947615542,120.27320504155017,20.01785644857967
22.902392678637845,120.27319392295792,19.853960249420716
22.902427417780867,120.27318408049945,19.606719769146622
22.90246566997867,120.27317786573414,19.3294419944455
22.902505689941464,120.27317406784499,19.084741788909906
22.90254558291611,120.2731698968279,18.914194336046325
22.902584356324468,120.27316329471286,18.818265029699976
22.90262351615771,120.27315448615236,18.747117945611688
22.90266511737848,120.27314482443987,18.653205345927965
22.902709489885122,120.27313566240336,18.526734568488934
22.902751610678312,120.27312809832671,18.416242313069187
22.902784896556224,120.27312269963333,18.36091861971844
22.902805393281835,120.273119462548,18.352250659351185
22.902817033075646,120.27311734070925,18.317772731984334
22.902825972088877,120.27311541295909,18.208482743998076
22.902836315135826,120.27311332427004,18.030139944227027
22.90284806313385,120.27311133958102,17.827286401940963
22.902860117790556,120.27310970521339,17.631685247076273
22.902871954466235,120.27310846372905,17.45049191000324
22.902883469718184,120.27310756620506,17.280836462009667
22.90289465620756,120.27310695756434,17.12041132527966
22.902905499344055,120.27310659798587,16.969662502248223
22.902915974839594,120.273106461043,16.83000556586124
22.90292606242501,120.27310652848013,16.7026427835522
22.902935750829933,120.27310678695463,16.58786502647437
22.902945035598645,120.27310722550278,16.485323249243823
22.90295391341119,120.27310783341949,16.394745972117526
22.90296237946237,120.27310860051676,16.31597806381373
22.902970430694346,120.27310951619292,16.248495956256566
22.90297806378716,120.27311057010483,16.192202692394943
22.90298527428509,120.27311175201281,16.146574704152986
22.90299205886818,120.2731130507463,16.111534425889825
22.902998414216484,120.27311445658277,16.08661646376024
22.903004335874275,120.27311595829994,16.071607512251838
22.90300982087107,120.27311754591669,16.066042177519392
22.903014865187977,120.27311920867619,16.069862285332256
22.903019465155584,120.27312093633874,16.082563659024768
22.90302361719183,120.27312271794065,16.10381664462323
22.903027317190464,120.27312454308709,16.133524285076557
22.903030562093637,120.27312640164179,16.17118240371909
22.903033348581392,120.2731282821239,16.21648073798735
22.90303567184854,120.27313017522461,16.269361113650678
22.903037528487758,120.2731320692562,16.329086657120815
22.9030389151791,120.27313395418587,16.395657368397753
22.903039828952082,120.27313581925672,16.468607853636275
22.90304026517624,120.27313765412569,16.547705415913768
22.90304022018216,120.27313944782905,16.632659184076967
22.90303969117409,120.27314119002368,16.723061938511307
22.90303867430788,120.2731428701079,16.818603416653307
22.9030371651278,120.27314447753172,16.918934573119046
22.90303516118757,120.27314600159002,17.023822710985915
22.903032657944102,120.27314743162938,17.132918784869997
22.903029652601646,120.27314875673783,17.245834966566942
22.90302614122868,120.27314996719281,17.362280384923487
22.90302212024315,120.27315105130663,17.481925385965933
22.90301758571354,120.27315199920159,17.604304575849056
22.90301253484409,120.27315280006914,17.729320997521768
22.903006963878028,120.27315344304901,17.85658682277972
22.90300086914592,120.27315391790151,17.98550091790617
22.902994246890984,120.2731542138698,18.116005108670453
22.902987093968004,120.27315431993847,18.247556435586493
22.902979407144397,120.27315422633326,18.38005794160319
22.90297118266337,120.27315392188362,18.512830927362934
22.90296241720498,120.27315339609126,18.645700870173766
22.902953107449264,120.27315263804421,18.778299333241552
22.902943249639446,120.27315163765793,18.910335445413025
22.902932840280833,120.273150384279,19.04118868156123
22.902921876402942,120.2731488671506,19.17070391040442
22.902910354685826,120.27314707592959,19.298532086558684
22.902898271460064,120.27314499980741,19.424207816178793
22.9028856239299,120.27314262890641,19.54718813977866
22.902872407814357,120.27313995169399,19.66727914325611
22.902858621191346,120.27313695834421,19.784112389817007
22.902844260041984,120.27313363835879,19.897319442667218
22.902829321395785,120.27312998113602,20.006279776679776
22.902813801714384,120.27312597633282,20.110780086342295
22.902797666531438,120.27312162772441,20.210548891911724
22.90278076400285,120.27311700269618,20.306788460821554
22.902762962422646,120.27311221238496,20.400080535378315
22.902744330636132,120.27310740397327,20.486973444563272
22.902725534293605,120.2731028242479,20.548890217387992
22.90270730247389,120.27309875583452,20.5618048965929
22.902689923838036,120.27309535677597,20.515614557454633
22.902672509250603,120.27309232970762,20.446309657337014
22.902653954259815,120.27308916543782,20.409388412282752
22.902633811633248,120.27308544812155,20.443963296700687
22.902613369992626,120.27308108192985,20.530933771526517
22.90259427970333,120.27307614376375,20.627696908512224
22.902577336286917,120.27307080506046,20.70243140349076
22.90256109901546,120.27306557330499,20.75044453518948
22.902543555255704,120.27306098034043,20.766539405670066
22.902523575918334,120.27305724781978,20.73702567931892
22.902502284894314,120.27305376280992,20.658218988194687
22.902481466788657,120.27304974238861,20.55203162584324
22.90246215366946,120.27304477639954,20.45571449129254
22.902443421585467,120.2730393038046,20.405354998957495
22.902423774199566,120.27303396918683,20.420305776235246
22.902402694123523,120.27302918203026,20.497929591336202
22.90238266902761,120.27302496948555,20.589844875767515
22.902366925140267,120.27302134008576,20.641619941048443
22.90235761715374,120.27301795473184,20.626223161335687
22.90235455465133,120.27301261204644,20.57875298912306
22.902357194078334,120.27300229364945,20.547183773288847
22.90236497525846,120.27298503884786,20.55412589814674
22.902375392589327,120.27296276008404,20.58197196321918
22.90238510250841,120.27293877486105,20.592792370120584
22.902391801908536,120.27291550119278,20.553893201224128
22.90239662350475,120.27289320986208,20.452708822708814
22.90240173655776,120.27287154472951,20.3052953222348
22.90240839395613,120.27285045570859,20.147274720371772
22.902415852008865,120.27283015703108,20.02361569741429
22.902422855621392,120.27281083010236,19.969882099701387
22.902428733158775,120.27279247265986,19.997495467851216
22.902434157566454,120.27277461869443,20.065249055151426
22.902440145251965,120.27275666186671,20.10624249635138
22.902447158846186,120.27273813156485,20.070368387448866
22.902454211733787,120.27271885032685,19.992570049655953
22.902459980717488,120.27269876445898,19.957103160368003
22.902463853703072,120.27267872370004,20.027086759843236
22.90246699625563,120.27266338019659,20.141651211408675
22.902470429085533,120.27265878392546,20.1851461445267
22.90247430884207,120.27266872131112,20.084407768446393
22.90247787101903,120.27268940426127,19.901760075607044
22.9024812462303,120.27271427314848,19.74602766014969
22.902485156215867,120.27273839930936,19.683916973222793
22.902489723944996,120.27276048543264,19.705073001770167
22.90249432399997,120.2727805072249,19.76706734023576
22.90249835236802,120.27279842456777,19.831795867542027
22.902502147596845,120.27281515249098,19.872071826563932
22.902506217770078,120.2728320614575,19.8781025551416
22.90251074081091,120.27285008374425,19.858303925309453
22.902515285038277,120.27286876240518,19.835325104201626
22.90251943982659,120.27288704908783,19.827122537679593
22.902523172238435,120.27290437065423,19.835674149585543
22.902527213056306,120.27292190534057,19.84240296893104
22.90253228760225,120.27294155912472,19.831582562029634
22.902538453232793,120.27296413390856,19.809146700407897
22.902544020966275,120.27298621972155,19.815293777446872
22.902547285658105,120.27300263719609,19.876667590785498
22.902547842405244,120.27300932691733,19.97752231532711
22.90254853693037,120.27300579593232,20.061331990287478
22.902552657514445,120.27299318172534,20.0952281753478
22.902561797603163,120.27297301549146,20.092086766892553
22.902573451856238,120.27294878777408,20.087820656644684
22.902583926434424,120.2729244986186,20.100308724824803
22.90259093786631,120.27290294557957,20.126041126183527
22.902595775035717,120.27288367749026,20.143512786789564
22.902600938390364,120.27286515780303,20.135155088985787
22.902608030811596,120.2728464210655,20.09538330662954
22.90261639770107,120.2728274255173,20.04529529403754
22.902624720732234,120.2728083764952,20.010196841543728
22.90263217725605,120.2727893310932,20.0043212442478
22.902638973415286,120.27277006992084,20.022452212801237
22.902645595626538,120.27275032344943,20.05468073658285
22.902652316213192,120.27273066215359,20.089488317923397
22.902658884169448,120.27271493982701,20.100231159183934
22.902664415470827,120.27270818132403,20.059101978112455
22.90266814722742,120.2727136656067,19.959740392157595
22.90267079121936,120.27272905978496,19.830147597673534
22.9026743457517,120.27275006300974,19.70530569869278
22.902680486963124,120.27277330951439,19.60408253735703
22.902688489575283,120.27279680731799,19.542301504403834
22.90269670418382,120.2728189154721,19.525741240078023
22.902704006067783,120.2728383846187,19.544550907989073
22.902710640772536,120.27285600975559,19.567878774480818
22.902716957286145,120.27287346381732,19.573114455239562
22.902722980814026,120.27289186272279,19.559501685266824
22.902728710963032,120.27291065647675,19.539024356077064
22.90273439651111,120.27292864388133,19.51926450906535
22.902740373297572,120.2729450827144,19.49806969769754
22.90274678067301,120.27296073836666,19.46896319096096
22.902753493440308,120.27297694753084,19.430180370525807
22.90276028588644,120.2729945659447,19.38881849253172
22.902766919935942,120.27301293961297,19.356686925801196
22.9027733464011,120.27303081882853,19.33999092160386
22.902779662346823,120.27304736047219,19.3333008850788
22.90278609283087,120.27306299523136,19.320424988694327
22.902792756148365,120.273078672449,19.28617975825009
22.90279963054488,120.27309507916671,19.225232555936245
22.902806514682837,120.27311208868127,19.14807413468051
22.902813183198674,120.27312921341816,19.06839483009649
22.902819475380532,120.27314604694459,18.994823819731007
22.90282536313987,120.27316246333311,18.927302929353406
22.90283087583205,120.27317847209937,18.86309797012301
22.902836037919872,120.2731940864826,18.800929108965462
22.90284086154737,120.27320930751708,18.740563648958148
22.902845355101793,120.27322413241018,18.68207915574194
22.902849525921976,120.27323855945528,18.625301106624875
22.902853381870965,120.27325258865237,18.570442807119353
22.902856930200233,120.27326621896717,18.517639997096893
22.90286017859809,120.27327944946877,18.466718153865536
22.902863135364413,120.27329227907116,18.41773545165594
22.902865807139108,120.27330470689516,18.370788847519187
22.902868202309413,120.2733167320099,18.325781384404195
22.90287032873838,120.27332835317421,18.282887585002914
22.90287219367748,120.27333956940548,18.24197170944383
22.90287380481502,120.27335037972112,18.203033757726935
22.902875170625613,120.27336078334541,18.16619007831354
22.902876297399697,120.27337077960603,18.13140188838321
22.90287719457292,120.27338036679637,18.09868857934616
22.902877868260983,120.27338954470957,18.06805015120239
22.902878327724803,120.27339831246645,18.039447821131464
22.902878579254818,120.27340666872243,18.012978546184474
22.902878631675105,120.27341461311549,17.98860354354098
22.902878492062406,120.27342214435274,17.966225856149897
22.902878168367128,120.2734292621756,17.9460393981134
22.90287766880179,120.27343596529118,17.927850255329314
22.902877000617856,120.2734422530789,17.91179416766916
22.902876170804703,120.2734481247113,17.89779356949207
22.902875188099046,120.27345357941265,17.88588724361848
22.90287406045129,120.27345861671752,17.87613336427904
22.902872795112913,120.27346323548815,17.868415583012442
22.90287139994696,120.27346743546597,17.862695116998257
22.902869882554366,120.2734712153581,17.85914648892844
22.902868250448712,120.27347457490595,17.8575563932906
22.902866511929872,120.2734775130752,17.857983004315386
22.902864674860894,120.27348002955559,17.860562061874326
22.90286274614378,120.27348212362307,17.865119043275456
22.902860734078406,120.27348379424333,17.871615165698344
22.902858646353085,120.27348504120953,17.880244343245163
22.902856490568755,120.27348586390104,17.890812661813744
22.9028542745011,120.27348626118018,17.90339768704495
22.90285200575105,120.27348623284003,17.917863679067263
22.90284969235639,120.2734857784669,17.934462726213507
22.902847342005426,120.27348489733676,17.95290395733042
22.90284496212437,120.27348358831186,17.97332311228953
22.902842560750994,120.27348185201281,17.995603842629524
22.90284014522414,120.27347968678468,18.019823713991276
22.90283772375632,120.27347709273093,18.045943943554352
22.90283530359901,120.27347406881724,18.073925748498315
22.90283289252788,120.27347061504359,18.103769128823163
22.90283049866808,120.27346673053083,18.13539651888803
