Latitude,Longitude,Altitude (m)
22.905110778097335,120.273909235362,-43.851901654856185
22.905104723428575,120.27391114681981,-43.89347479019739
22.905098655280113,120.27391304504005,-43.93435734155139
22.905092573651945,120.27391493014758,-43.97454703317706
22.905086477507172,120.27391680289169,-44.01404045146273
22.905080369541732,120.27391866202358,-44.052837286080056
22.90507424726707,120.27392050904182,-44.09093226144736
22.905068112756982,120.27392234232293,-44.12832610166407
22.90506196476719,120.27392416236647,-44.165010117536845
22.905055804127212,120.27392596942218,-44.200990619075135
22.90504963083705,120.27392776286564,-44.23625684823001
22.905043445518842,120.27392954282176,-44.27081314959817
22.90503724692831,120.2739313094154,-44.30465155808567
22.905031036309733,120.27393306252169,-44.337775694189766
22.90502481304097,120.27393480226552,-44.37017743765236
22.905018577951548,120.27393652739804,-44.40185523683178
22.905012331870978,120.2739382397925,-44.43280955722053
22.90500607314022,120.27393993807519,-44.46303781274916
22.90499980321094,120.27394162224611,-44.492537055298484
22.90499352063148,120.2739432920555,-44.5213011300232
22.904987227683012,120.27394494825266,-44.54932895077414
22.90498092312126,120.27394659058781,-44.576622327799925
22.904974608397886,120.27394821843654,-44.60317510625524
22.904968282061223,120.27394983179886,-44.62898444146371
22.904961944111278,120.27395143092451,-44.65405302293754
22.904955595377572,120.2739530159384,-44.67837138566254
22.90494923648224,120.27395458671565,-44.70193911586759
22.9049428672179,120.27395614225718,-44.72475497223936
22.904936486962423,120.2739576839367,-44.746820092648406
22.90493009716746,120.27395921038051,-44.76812640855803
22.90492369638135,120.27396072208813,-44.788675057838795
22.904917286470518,120.2739622189347,-44.80845786851122
22.904910865153784,120.27396370054554,-44.82747980582865
22.904904435334466,120.2739651681695,-44.84573466322441
22.904897995353522,120.27396661980845,-44.86322037184293
22.904891545625716,120.27396805658633,-44.879932276759185
22.904885086773184,120.2739694787529,-44.89587306748542
22.90487861858855,120.27397088455983,-44.91103627884798
22.904872142523473,120.27397227550567,-44.92542004887687
22.904865656089395,120.27397365084116,-44.939025774049604
22.90485916073797,120.27397501094093,-44.95184398935196
22.904852657506105,120.27397635605476,-44.9638768153609
22.904846144734755,120.27397768480893,-44.97512042469363
22.90483962408296,120.27397899820248,-44.9855740932507
22.904833094306444,120.27398029511151,-44.99523507979849
22.904826558308525,120.27398157728435,-45.004097074327525
22.90482001214898,120.2739828424731,-45.01216509381256
22.904813457901618,120.27398409242615,-45.01942858709021
22.904806896810708,120.27398532664395,-45.02588853686687
22.904800326387697,120.27398654400255,-45.03154297772975
22.904793750158042,120.27398774525128,-45.03638859950996
22.904787165218426,120.27398893014032,-45.04042638491388
22.904780573850026,120.27399009904435,-45.043649299832595
22.9047739743938,120.27399125146385,-45.046056102952775
22.904767368508796,120.27399238652463,-45.047643690991066
22.90476075495073,120.27399350609991,-45.04841020197746
22.904754134756498,120.27399460844136,-45.048353980827514
22.904747508340865,120.27399569429826,-45.04747430344178
22.90474087404479,120.27399676367061,-45.04576491153217
22.90473423435683,120.27399781580914,-45.04322306386506
22.90472758803271,120.27399885121334,-45.0398533119227
22.90472093569457,120.2739998693837,-45.03564107027336
22.904714276927642,120.27400087044511,-45.030595648767076
22.904707611524554,120.27400185452244,-45.02470603074798
22.904700941973868,120.27400282124106,-45.01797671597691
22.904694266201776,120.27400377047604,-45.010399325588835
22.904687582964,120.27400470272697,-45.00197644565321
22.904680896408145,120.27400561724453,-44.99269949041946
22.904674203630886,120.2740065140287,-44.98257052874313
22.904667505876507,120.2740073938288,-44.9715844919281
22.904660803352385,120.27400825564577,-44.95974282817326
22.90465409481424,120.27400909985424,-44.94703912402636
22.904647382750635,120.27400992545515,-44.9334724485024
22.90464066488039,120.27401073444665,-44.91904161200943
22.90463394244778,120.27401152458081,-44.90374226995077
22.90462721648971,120.27401229685672,-44.88756899158055
22.90462048451762,120.27401305077485,-44.87052167345601
22.904613749642202,120.27401378695961,-44.85260419468132
22.904607010826567,120.27401450453681,-44.83380160777504
22.90460026724119,120.27401520350647,-44.81412373980109
22.904593520545113,120.2740158849925,-44.79356153951639
22.904586770323572,120.27401654662216,-44.77211076576702
22.904580015539672,120.27401719064332,-44.749773177080215
22.90457325743769,120.27401781505787,-44.726544170252346
22.904566496432384,120.27401842148929,-44.70241810765201
22.904559732109,120.27401900931314,-44.677400523467824
22.904552963223253,120.27401957765527,-44.651482263013925
22.904546193922748,120.27402012738983,-44.624662188419755
22.90453942068202,120.27402065726803,-44.596939006650594
22.90453264516011,120.27402116878842,-44.56830692491084
22.90452586569798,120.27402166132661,-44.53876666729997
22.90451908561371,120.27402213438309,-44.508315389141565
22.904512301174456,120.27402258695875,-44.476948797560325
22.904505515490925,120.27402302155127,-44.44466616845682
22.90449872897787,120.27402343603765,-44.41146315723436
22.904491938524597,120.27402383041789,-44.377339298400436
22.90448514786394,120.27402420544126,-44.342288075060026
22.904478354922105,120.27402456073314,-44.30631191811842
22.90447156032123,120.27402489666817,-44.269406224371984
22.90446476447607,120.27402521224728,-44.23156644233848
22.904457966142356,120.27402550759537,-44.192789675620126
22.904451168016017,120.27402578308707,-44.153075613888575
22.90444436823064,120.27402603809797,-44.112423119273274
22.904437567408362,120.27402627275295,-44.07082681274976
22.90443076658608,120.27402648755157,-44.02828307382078
22.904423964312144,120.27402668199426,-43.98479159215802
22.904417161208684,120.27402685545661,-43.94035133333369
22.904410357897845,120.27402700868794,-43.89495484946775
22.904403555001764,120.27402714106383,-43.848601519903546
22.904396751276163,120.27402725270915,-43.80128999988496
22.904389947550566,120.27402734312437,-43.753016048258075
22.904383143410204,120.2740274130588,-43.70378018223679
22.904376340306747,120.27402746201291,-43.653575574597745
22.904369536166385,120.27402748998668,-43.6023986048437
22.904362734307206,120.27402749623083,-43.55024979018855
22.904355932240648,120.27402748149464,-43.49713047538841
22.904349130588848,120.27402744515372,-43.44302876452378
22.90434232997395,120.2740273882071,-43.38794796776357
22.904335529773814,120.27402730903134,-43.3318828095261
22.904328731232713,120.27402720825083,-43.27483184161246
22.904321933935897,120.27402708636511,-43.21679402959488
22.90431513726122,120.27402694200048,-43.15776420133444
22.904308343075105,120.27402677615596,-43.09774008109002
22.904301549096367,120.27402658808231,-43.03672084131941
22.904294757398812,120.27402637790436,-42.97469820660034
22.904287968604578,120.27402614624657,-42.91167548710172
22.904281180432484,120.27402589223473,-42.84764606248573
22.90427439433419,120.27402561511956,-42.782610346523505
22.9042676103097,120.27402531639963,-42.71656171887723
22.90426082939591,120.27402499470125,-42.649503489715805
22.90425405138544,120.27402465064884,-42.58142572853252
22.90424727441187,120.2740242841175,-42.512330917954074
22.90424050075638,120.2740238946077,-42.44221698912487
22.904233730211594,120.27402348224433,-42.371073183996
22.90422696174061,120.27402304702738,-42.29890901930305
22.904220197209842,120.27402258908175,-42.22570587534595
22.904213435789778,120.27402210778303,-42.15147575148697
22.904206677480417,120.27402160325606,-42.07620788967717
22.904199922074373,120.27402107562577,-41.99990104860321
22.904193171023316,120.27402052476725,-41.922556055807334
22.904186422875576,120.27401994980634,-41.8441658771806
22.904179678875437,120.27401935186697,-41.764730098951915
22.904172938815524,120.27401872982519,-41.68424375586792
22.904166203110588,120.2740180845552,-41.602705606615274
22.904159471553257,120.27401741568232,-41.520111513482846
22.904152743521387,120.274016721708,-41.43646230401287
22.904146020466637,120.27401600425569,-41.35174928901198
22.90413930218163,120.27401526282584,-41.26597164093794
22.904132588251603,120.2740144980429,-41.17913018733298
22.90412587867656,120.2740137080336,-41.09121830785929
22.904119174493395,120.27401289329751,-41.002234347432434
22.904112474872594,120.27401205533319,-40.91217251325683
22.904105781058437,120.27401119164297,-40.821035701730246
22.90409909201402,120.27401030372549,-40.728816464972674
22.904092408257796,120.27400939108118,-40.63551894069524
22.904085730515593,120.27400845371005,-40.541127819366764
22.904079057854204,120.27400749111258,-40.44565261772284
22.904072391725286,120.27400650341364,-40.34908257771455
22.90406573109194,120.27400549111279,-40.25142059573966
22.904059075643094,120.27400445308604,-40.152658396375934
22.904052427141483,120.27400338970806,-40.0527939107678
22.904045784861275,120.2740023012286,-39.951829207770814
22.90403914869878,120.27400118739794,-39.849753943107174
22.904032518965064,120.27400004759161,-39.746572254488
22.904025896385964,120.27399888230919,-39.64227917665994
22.904019279820883,120.27399769117599,-39.536867675514074
22.904012670617796,120.27399647419203,-39.430338578592625
22.90400606825825,120.27399523098266,-39.32269064458226
22.90399947263856,120.27399396204741,-39.213917253145176
22.903992884484552,120.27399266663699,-39.104020059365816
22.90398630338147,120.27399134525092,-38.99299202913527
22.903979730262513,120.27398999738966,-38.880827369657965
22.903973164194483,120.2739886226786,-38.767531046187244
22.903966605903207,120.27398722199187,-38.65309809346975
22.903960055596063,120.27398579445533,-38.537522304938804
22.90395351285829,120.27398433994408,-38.42080078419661
22.903946978623104,120.27398285908254,-38.30293228992983
22.903940451853597,120.27398135074675,-38.1839147532829
22.903933934105126,120.27397981593577,-38.0637440365447
22.903927424237096,120.2739782535257,-37.942418070859645
22.9039209223532,120.27397666351648,-37.819933546058856
22.903914430008786,120.27397504690721,-37.69628715197342
22.90390794647803,120.27397340244906,-37.57147640597667
22.90390147113878,120.27397173114107,-37.44549882544191
22.903895005131638,120.27397003198419,-37.31835110020025
22.90388854773077,120.27396830422914,-37.19002743745612
22.903882099869385,120.27396654937448,-37.06052535458283
22.903875661340102,120.27396476642117,-36.92985064437597
22.903869232246613,120.27396295574387,-36.797987583533235
22.903862813107366,120.27396111684301,-36.66494610256135
22.903856402989156,120.27395924984351,-36.53071378832693
22.903850002721498,120.27395735412094,-36.39529146837219
22.903843612304396,120.27395543042459,-36.25867169481712
22.903837231426774,120.2739534778803,-36.12085612274615
22.903830861540296,120.27395149723733,-35.981845579701506
22.903824501711753,120.27394948737178,-35.84163179026095
22.903818152148524,120.27394744953246,-35.70020978917112
22.90381181253954,120.27394538222077,-35.55758123151646
22.9038054839217,120.27394328606113,-35.413742807128074
22.90379916567286,120.27394116092864,-35.268687895668165
22.90379285841517,120.27393900619892,-35.12241649713672
22.903786561837553,120.27393682324565,-34.974927783991525
22.903780276769528,120.27393460982096,-34.82621017064141
22.903774002381574,120.27393236717366,-34.67627276005087
22.90376773950322,120.27393009517887,-34.525104794170964
22.90376148761601,120.27392779358684,-34.372704617917236
22.90375524692732,120.27392546227267,-34.21907057620525
22.903749018266677,120.27392310111149,-34.06419935886609
22.903742801011937,120.27392070985354,-33.90808765573087
22.903736595681554,120.2739182891232,-33.75074208713737
22.903730401653384,120.2739158375468,-33.59213865436107
22.903724220171707,120.27391335649803,-33.432288942993125
22.903718050199625,120.27391084497782,-33.27119047040685
22.90371189349987,120.27390830236178,-33.108834133637764
22.903705748309708,120.27390573027336,-32.94521993268588
22.903699615666042,120.27390312671446,-32.78035614297344
22.903693495361487,120.27390049330853,-32.61421959331813
22.90368738760343,120.273897828557,-32.44681773159999
22.903681292910317,120.27389513320915,-32.27814973027679
22.90367521066001,120.27389240689034,-32.10821227917962
22.903669141163576,120.27388964960058,-31.936993792717328
22.903663084835777,120.27388686096519,-31.7645033738544
22.903657042195064,120.27388404110908,-31.590737712421927
22.903651011893466,120.27388119015713,-31.415679430033176
22.90364499559002,120.27387830773469,-31.2393401122793
22.90363899224783,120.27387539371686,-31.061716448991405
22.90363300269642,120.27387244835343,-30.882795199493877
22.90362702683209,120.2738694708951,-30.702587949377875
22.90362106392902,120.2738664623409,-30.521079802883335
22.90361511574993,120.27386342131716,-30.338277380348067
22.90360918094686,120.27386034857317,-30.154164130927562
22.90360326045301,120.27385724373426,-29.96874833004407
22.903597353749937,120.27385410717508,-29.782025012444237
22.9035914612524,120.27385093839612,-29.593995833212517
22.90358558316778,120.27384773689785,-29.404654172011107
22.903579719081314,120.27384450317977,-29.213988443248848
22.903573870444664,120.27384123711703,-29.02201519777025
22.903568035806167,120.27383793821008,-28.828714574561904
22.90356221568428,120.2738346073331,-28.634089883792704
22.903556410493753,120.27383124323727,-28.43814609071601
22.903550620027215,120.27382784654701,-28.240874919909565
22.903544844803115,120.27382441688765,-28.042266440866662
22.903539084614067,120.27382095463385,-27.842325618840658
22.903533339149003,120.27381745903631,-27.64104252332484
22.90352760934114,120.27381393021993,-27.438427084825918
22.90352189456833,120.27381036830957,-27.234464407583832
22.903516195452713,120.27380677343012,-27.029159456851936
22.903510511268465,120.27380314458252,-26.822507267376874
22.903504843570936,120.27379948251607,-26.61451942474981
22.903499190493697,120.27379578735564,-26.405164482366164
22.903493554006868,120.27379205847683,-26.19446395632381
22.90348793317723,120.27378829562987,-25.982393020355975
22.90348232800479,120.27378449906452,-25.768974845644976
22.90347673921538,120.27378066890567,-25.554194536430753
22.903471166394233,120.27377680465379,-25.3380454723755
22.903465609645043,120.27377290643375,-25.12053427381703
22.90346006927888,120.27376897449533,-24.901654320417528
22.90345454456991,120.27376500808923,-24.681400646923645
22.90344903728087,120.2737610074652,-24.459773253335385
22.903443546271163,120.27375697274815,-24.23676882948384
22.903438071644484,120.2737529035634,-24.012395650791266
22.90343261391928,120.27374880028563,-23.786628890990897
22.90342717299186,120.2737446624153,-23.55949172126505
22.90342174834378,120.27374048995239,-23.330960970431413
22.903416341011937,120.27373628252226,-23.101048224081136
22.90341095068526,120.27373204087422,-22.86974024153862
22.90340557746744,120.27372776400921,-22.63704860839501
22.903400221047402,120.27372345330092,-22.4029534636369
22.903394882462056,120.27371910718833,-22.16747632336216
22.903389560778184,120.2737147259212,-21.93058739605066
22.903384256410547,120.27371030993662,-21.692313163053623
22.903378969670218,120.27370585885993,-21.45262052268203
22.903373700349814,120.27370137250384,-21.211527680864833
22.90336844917517,120.27369685111807,-20.96903463760204
22.903363215316762,120.27369229451534,-20.725131462386944
22.903357998774588,120.27368770275807,-20.47981484505064
22.903352801000313,120.2736830754716,-20.233091405930935
22.903347620127512,120.2736784125935,-19.98494955943667
22.90334245791892,120.27367371462331,-19.73538930556785
22.903337313337637,120.27366898081172,-19.484425540084523
22.90333218679842,120.27366421153339,-19.232036746888838
22.903327078923407,120.27365940666343,-18.978219615811884
22.90332198898677,120.27365456638915,-18.722979112107016
22.903316917299584,120.27364969033594,-18.466323511196492
22.903311864276603,120.27364477819155,-18.2082362622358
22.90330682960676,120.27363983039311,-17.948723985562747
22.90330181339374,120.27363484656593,-17.687765165079462
22.903296815844932,120.27362982714713,-17.425404488066132
22.903291837064017,120.27362477151227,-17.16159395707367
22.903286876947313,120.27361967984872,-16.896346812777686
22.903281935598503,120.27361455221887,-16.62967298568489
22.9032770129139,120.27360938881007,-16.36154599444406
22.903272108893507,120.27360418912279,-16.091989010237516
22.903267224366836,120.27359895334435,-15.820998722896348
22.903262358504378,120.27359368103765,-15.548565201913858
22.903257511928263,120.27358837313933,-15.274688447290043
22.903252684534806,120.27358302852542,-14.999365148855999
22.9032478764277,120.27357764769549,-14.722595306611726
22.903243087399556,120.27357223058705,-14.444368990050522
22.903238317761453,120.27356677701282,-14.1647126805236
22.903233567824454,120.27356128716009,-13.883606517017547
22.9032288367072,120.27355576096645,-13.601043879194561
22.9032241253429,120.27355019824454,-13.317034697561349
22.90321943414631,120.2735445991817,-13.031572351780104
22.90321476197684,120.27353896365307,-12.744656841850826
22.903210109664016,120.27353329134641,-12.45629147794242
22.903205476793072,120.27352758307349,-12.166469639717079
22.903200864089843,120.27352183796009,-11.875184706837
22.903196270932185,120.27351605631844,-11.582449919977792
22.903191697683013,120.27351023846076,-11.288255348632747
22.9031871446534,120.27350438332553,-10.992614233477475
22.903182611480428,120.27349849216156,-10.695513333836368
22.90317809842333,120.27349256446936,-10.396939409033815
22.903173605378402,120.27348660018646,-10.09692887092774
22.903169132656725,120.27348059893822,-9.795438687322418
22.903164680154603,120.27347456122418,-9.492498649737966
22.903160247509128,120.2734684871692,-9.188105448005482
22.903155835186897,120.2734623763362,-8.882232600773749
22.90315144365452,120.27345622916228,-8.574919830069593
22.903147072393544,120.27345004521034,-8.266137344372895
22.90314272135213,120.27344382473015,-7.955901694528165
22.903138390841338,120.27343756759683,-7.644199639859794
22.903134080913023,120.27343127406014,-7.331027870198881
22.903129792137474,120.27342494380787,-7.01640955672774
22.903125523011187,120.27341857752688,-6.700331458770763
22.903121275193204,120.2734121740308,-6.382780335652342
22.903117047957693,120.2734057346933,-6.063782668723693
22.903112841408348,120.27339925870268,-5.743321907140306
22.903108655597006,120.27339274599647,-5.4213947407332785
22.903104490523674,120.27338619713667,-5.098024340684926
22.903100346758645,120.27337961224816,-4.773174295137324
22.90309622336871,120.27337299045674,-4.446887636286202
22.903092121390767,120.2733663326366,-4.119127952273635
22.903088040410054,120.27335963847553,-3.7899217244508403
22.903083980219197,120.27335290803597,-3.4592689528178178
22.903079941284798,120.27334614150526,-3.1271563966989593
22.903075923606856,120.27333933869606,-2.7935807459253628
22.90307192692615,120.27333250010791,-2.4585552411726366
22.903067951398207,120.27332562536616,-2.1220798824407807
22.903063996919347,120.27331871453325,-1.7841414290541866
22.90306006380063,120.2733117681087,-1.4447928437152884
22.903056152249444,120.27330478571787,-1.103957992539337
22.90305226169549,120.27329776704856,-0.761696458566571
22.90304839255353,120.27329071309984,-0.417981760445773
22.903044545082786,120.27328362362192,-0.0728304490214539
22.903040718972193,120.27327649817772,0.27376409604419066
22.90303691396252,120.2732693374541,0.6217985645822586
22.90303313067591,120.27326214132617,0.9712696464238476
22.903029369060523,120.27325490979395,1.3221839619067621
22.903025629064505,120.2732476429823,1.6745216500175892
22.90302191037679,120.27324034070391,2.0282926412630355
