Latitude,Longitude,Altitude (m)
-37.983517991525616,132.50079044354132,12002.659086227417
-37.9719570453535,132.49772491380122,12002.973020553589
-37.96039609918138,132.49467680184372,12003.288408279419
-37.94884266987933,132.49164610766886,12003.603796005249
-37.93727420683714,132.48868508462445,12003.91773033142
-37.9257207775351,132.48558471931912,12004.23384475708
-37.91415983136297,132.48248435401382,12004.548505783081
-37.90260264362589,132.47952333096939,12004.862440109253
-37.891052972758885,132.47642296566409,12005.178554534912
-37.87948450971669,132.47339227148922,12005.493942260742
-37.86792732197961,132.47037899509695,12005.81151008606
-37.8563776511126,132.46740055426994,12006.123991012573
-37.84482046337552,132.46430018896461,12006.440832138062
-37.83326327563844,132.46126949478975,12006.756219863892
-37.82171736320646,132.4582736361801,12007.070880889893
-37.81016017546938,132.45524294200524,12007.38844871521
-37.79860674616734,132.45217741226514,12007.700929641724
-37.78704579999522,132.44911188252505,12008.017770767212
-37.77550364599828,132.44615085948064,12008.336065292358
-37.76395021669623,132.44312016530577,12008.649272918701
-37.752393028959155,132.44012430669613,12008.96538734436
-37.74085087496221,132.4370413591734,12009.28077507019
-37.729297445660166,132.43401066499854,12009.598342895508
-37.717759050098266,132.43096255304107,12009.91155052185
-37.706205620796226,132.4280363655619,12010.230571746826
-37.694663466799284,132.42495341803917,12010.546686172485
-37.683117554367314,132.42197497721216,12010.860620498657
-37.67157164193534,132.41897911860252,12011.179641723633
-37.66002197106833,132.41594842442765,12011.492122650146
-37.6484798170714,132.41295256581802,12011.809690475464
-37.636930146204385,132.4099915427736,12012.126531600952
-37.62538047533737,132.4069434308161,12012.442646026611
-37.61384207977547,132.40391273664125,12012.760213851929
-37.60229992577854,132.4009342958142,12013.075601577759
-37.59076153021664,132.39792101942197,12013.390989303589
-37.57922313465474,132.3949077430297,12013.709283828735
-37.567680980657805,132.39198155555053,12014.026124954224
-37.55614634353094,132.38895086137566,12014.342966079712
-37.544600431098964,132.38593758498342,12014.656900405884
-37.5330657939721,132.3829591441564,12014.97592163086
-37.52153867371531,132.37996328554675,12015.292036056519
-37.5099890028483,132.3769674269371,12015.608877182007
-37.498454365721436,132.37407607502317,12015.926445007324
-37.486923487029614,132.37097570971784,12016.244012832642
-37.475385091467714,132.3679798511082,12016.56085395813
-37.46385797121092,132.36505366362903,12016.878421783447
-37.45232709251909,132.3620578050194,12017.197443008423
-37.44079245539223,132.35906194640972,12017.511377334595
-37.429261576700405,132.35613575893055,12017.829671859741
-37.41772693957354,132.3531399003209,12018.148693084717
-37.40619606088171,132.3501788772765,12018.462627410889
-37.39466894062492,132.34716560088427,12018.781648635864
-37.383138061933096,132.3441697422746,12019.09994316101
-37.37160718324127,132.34126097257806,12019.418237686157
-37.36007630454944,132.3382476961858,12019.733625411987
-37.348552942727686,132.33526925535878,12020.053373336792
-37.337029580905934,132.33232565009698,12020.369487762451
-37.325506219084176,132.32932979148734,12020.687782287598
-37.313982857262424,132.3264384395734,12021.008256912231
-37.302459495440665,132.32345999874636,12021.32437133789
-37.29092861674884,132.32049897570195,12021.64048576355
-37.279405254927084,132.31753795265755,12021.960233688354
-37.2678894099754,132.3145420940479,12022.276348114014
-37.25636604815365,132.31158107100347,12022.596822738647
-37.24485020320197,132.3086548835243,12022.913663864136
-37.23333435825029,132.3056938604799,12023.231958389282
-37.22181099642854,132.30273283743549,12023.550979614258
-37.210283876171744,132.2998240677389,12023.869274139404
-37.19876803122006,132.2968630446945,12024.186841964722
-37.187255944703416,132.29395427499793,12024.505863189697
-37.175740099751735,132.29099325195352,12024.823431015015
-37.164224254800054,132.28804964669172,12025.14317893982
-37.15271592671844,132.28510604142994,12025.460746765137
-37.14119256489669,132.28221468951597,12025.780494689941
-37.12969175368516,132.2791665775585,12026.098062515259
-37.118172150298435,132.27631006120978,12026.419263839722
-37.106660063781796,132.2734012915132,12026.73610496521
-37.09515549413522,132.2704402684688,12027.057306289673
-37.083643407618574,132.26751408098963,12027.372694015503
-37.07213507953697,132.26458789351042,12027.692441940308
-37.06062675145536,132.26162687046602,12028.012189865112
-37.04911842337375,132.25871810076944,12028.330484390259
-37.03761385372718,132.25577449550767,12028.650232315063
-37.026101767210534,132.2528831435937,12028.969980239868
-37.014600955999,132.24997437389715,12029.289728164673
-37.00310014478746,132.24703076863534,12029.60729598999
-36.991591816705856,132.2441394167214,12029.927770614624
-36.98008724705928,132.241178393677,12030.248245239258
-36.96858643584775,132.23825220619779,12030.565086364746
-36.95709689994132,132.2353260187186,12030.888467788696
-36.94558857185971,132.2324695023699,12031.203128814697
-36.93409151908321,132.2295433148907,12031.52505683899
-36.92259446630671,132.22666938075938,12031.844804763794
-36.91109365509518,132.22369093993234,12032.164552688599
-36.89960787762379,132.22085184136623,12032.484300613403
-36.88810706641225,132.21794307166965,12032.804775238037
-36.876610013635755,132.21508655532094,12033.123796463013
-36.86511671929429,132.212195203407,12033.444997787476
-36.853627183387864,132.20923418036259,12033.764019012451
-36.842130130611366,132.20636024623124,12034.083040237427
-36.83064059470494,132.2034863120999,12034.40424156189
-36.819147300363475,132.20050787127286,12034.723989486694
-36.80765776445705,132.19763393714152,12035.043737411499
-36.79616822855063,132.1947774207928,12035.363485336304
-36.784674934209164,132.19190348666146,12035.684686660767
-36.77319291517281,132.18902955253012,12036.004434585571
-36.76170713770142,132.18613820061617,12036.327816009521
-36.750225118665064,132.18324684870223,12036.643203735352
-36.73873934119368,132.1804251679187,12036.966585159302
-36.727253563722286,132.1774641448743,12037.287786483765
-36.715771544685936,132.1746076285256,12037.606081008911
-36.70428576721454,132.17176852995948,12037.93018913269
-36.69281126504826,132.16889459582814,12038.248483657837
-36.68132548757687,132.1660032439142,12038.5696849823
-36.669854743845626,132.16312930978285,12038.890159606934
-36.65836896637424,132.16029021121673,12039.212087631226
-36.64689070577292,132.1573988593028,12039.533288955688
-36.63541996204168,132.15454234295404,12039.853763580322
-36.62394170144036,132.15170324438793,12040.176418304443
-36.612470957709114,132.14879447469139,12040.495439529419
-36.6009926971078,132.1460076294731,12040.817367553711
-36.58951819494152,132.14309885977653,12041.140748977661
-36.578039934340204,132.14020750786258,12041.459043502808
-36.566572949043994,132.1374032448617,12041.783151626587
-36.555098446877714,132.134546728513,12042.102899551392
-36.54363522001654,132.13169021216424,12042.424827575684
-36.53216823472034,132.12883369581553,12042.746028900146
-36.52069373255406,132.1259771794668,12043.067956924438
-36.509230505692884,132.1231554986833,12043.389158248901
-36.49776727883172,132.1202989823346,12043.711086273193
-36.48630029353551,132.11747730155108,12044.034467697144
-36.47483706667433,132.11458594963713,12044.354942321777
-36.4633775982482,132.11179910441885,12044.67687034607
-36.45191061295199,132.10896000585274,12044.99952507019
-36.44045114452586,132.10612090728662,12045.319272994995
-36.428987917664685,132.1032818087205,12045.641201019287
-36.41753220767359,132.10047754571963,12045.963855743408
-36.406072739247456,132.09758619380568,12046.287237167358
-36.39460951238628,132.09479934858743,12046.606985092163
-36.38316507770029,132.09197766780392,12046.930366516113
-36.37170560927416,132.0891211514552,12047.253747940063
-36.36024989928306,132.08636914180215,12047.573495864868
-36.348794189291965,132.0834777898882,12047.899057388306
-36.33733847930087,132.08072578023516,12048.21880531311
-36.32589028617984,132.07786926388644,12048.54291343689
-36.314442093058815,132.07508241866816,12048.864841461182
-36.30298638306772,132.07226073788468,12049.187496185303
-36.29153818994669,132.06940422153593,12049.510150909424
-36.280089996825666,132.0666522118829,12049.833532333374
-36.26865307900975,132.06379569553417,12050.156187057495
-36.25719361058361,132.06102626809852,12050.477388381958
-36.245752934332664,132.05822200509763,12050.802949905396
-36.234319774951786,132.0554699954446,12051.125604629517
-36.22287158183076,132.05261347909587,12051.447532653809
-36.2114309055798,132.04982663387761,12051.772367477417
-36.199990229328854,132.0470049530941,12052.09284210205
-36.188557069947976,132.04421810787585,12052.41695022583
-36.17710887682695,132.04143126265757,12052.74033164978
-36.16566444214096,132.03862699965669,12053.062986373901
-36.154235041195115,132.03587499000366,12053.38709449768
-36.142794364944166,132.03303589143755,12053.71120262146
-36.13136872243336,132.0302838817845,12054.03458404541
-36.1199280461824,132.02749703656625,12054.356512069702
-36.10849488680152,132.02467535578273,12054.680620193481
-36.09706548585568,132.02192334612968,12055.004001617432
-36.08563608490984,132.01917133647666,12055.328109741211
-36.07420292552896,132.01638449125838,12055.651491165161
-36.062773524583115,132.01359764604013,12055.97632598877
-36.051347882072314,132.01084563638707,12056.29970741272
-36.03991848112647,132.0080413733862,12056.62308883667
-36.02849283861566,132.00532419929837,12056.94647026062
-36.01707095453989,132.0025199362975,12057.2705783844
-36.00565282889916,131.99975050886184,12057.59323310852
-35.994230944823386,131.99698108142618,12057.918794631958
-35.98280906074762,131.99422907177316,12058.242176055908
-35.97139469354192,131.99145964433748,12058.565557479858
-35.959969051031116,131.98869021690183,12058.894025802612
-35.94855092539038,131.98597304281404,12059.214500427246
-35.93712528287957,131.98318619759576,12059.540788650513
-35.92572219097899,131.98046902350794,12059.863443374634
-35.914300306903215,131.97768217828968,12060.191184997559
-35.90288593969752,131.97493016863663,12060.511659622192
-35.89147157249182,131.9721955767662,12060.839401245117
-35.88006096372116,131.96942614933056,12061.163509368896
-35.868657871820574,131.96674381080797,12061.486164093018
-35.85724726304991,131.96399180115495,12061.812452316284
-35.84583665427925,131.9612397915019,12062.136560440063
-35.83443356237866,131.95848778184885,12062.461395263672
-35.823022953608,131.95573577219582,12062.788410186768
-35.81161610327238,131.95298376254277,12063.112518310547
-35.80021676980682,131.95026658845495,12063.437353134155
-35.78881367790624,131.94751457880193,12063.762914657593
-35.777406827570616,131.94484965806194,12064.087022781372
-35.76599997723499,131.9420802306263,12064.413311004639
-35.75460816063951,131.93929338540804,12064.736692428589
-35.743212585608994,131.9366807180159,12065.062253952026
-35.731813252143446,131.93391129058026,12065.388542175293
-35.72041391867789,131.93124636984027,12065.711923599243
-35.70903337738752,131.92842468905678,12066.039665222168
-35.69763028548694,131.92577718609942,12066.364500045776
-35.68623846889146,131.9230600120116,12066.688608169556
-35.674846652295976,131.9203602557064,12067.015623092651
-35.663451077265464,131.917625663836,12067.341184616089
-35.65206677754006,131.91490848974817,12067.665292739868
-35.640671202509544,131.9122261512256,12067.99521446228
-35.62929441965421,131.9095089771378,12068.317869186401
-35.617898844623696,131.90679180304997,12068.64270401001
-35.606518303333324,131.90407462896215,12068.971172332764
-35.595141520477995,131.90137487265696,12069.294553756714
-35.58375346231755,131.898709951917,12069.623022079468
-35.572369162592146,131.89607986674224,12069.948583602905
-35.56099613817185,131.8933104393066,12070.275598526001
-35.54960808001141,131.89062810078403,12070.59970664978
-35.53823505559111,131.88796318004404,12070.928174972534
-35.526862031170815,131.88522858817362,12071.253736495972
-35.51548148988044,131.88254624965103,12071.577844619751
-35.50410846546015,131.87986391112844,12071.907039642334
-35.492735441039855,131.87725124373634,12072.231147766113
-35.48135489974948,131.87453406964852,12072.558162689209
-35.46998939219926,131.87183431334333,12072.886631011963
-35.45862764308407,131.86918681038597,12073.210739135742
-35.44725461866378,131.86648705408075,12073.539207458496
-35.43588911111355,131.8638221333408,12073.864768981934
-35.42452360356333,131.86119204816606,12074.1910572052
-35.41316185444814,131.85847487407824,12074.518072128296
-35.40178883002785,131.8558447889035,12074.847267150879
-35.390430839347694,131.85321470372875,12075.172101974487
-35.37906909023251,131.8505497829888,12075.499116897583
-35.36771109955236,131.84788486224883,12075.826131820679
-35.3563418335671,131.84525477707408,12076.153146743774
-35.34498760132198,131.84252018520365,12076.48016166687
-35.333637127511906,131.83989010002892,12076.807903289795
-35.322282895266795,131.8371903437237,12077.134191513062
-35.310936179891755,131.83454284076635,12077.464839935303
-35.29957067234153,131.83194759115685,12077.788221359253
-35.28821644009641,131.82931750598212,12078.121049880981
-35.27687348315641,131.82667000302476,12078.44515800476
-35.26552676778137,131.82397024671954,12078.771446228027
-35.254172535536256,131.8213575793274,12079.099187850952
-35.242825820161215,131.81871007637008,12079.427656173706
-35.231479104786175,131.81609740897795,12079.75612449646
-35.22014366471624,131.81343248823796,12080.083139419556
-35.208793190906164,131.81085465641107,12080.410154342651
-35.19745399240119,131.8082071534537,12080.737895965576
-35.18611103546119,131.80555965049638,12081.06709098816
-35.174771836956225,131.80294698310425,12081.395559310913
-35.16342888001622,131.80033431571212,12081.72184753418
-35.152093439946285,131.79772164832,12082.05322265625
-35.14076551674643,131.79505672758,12082.379510879517
-35.129433835111534,131.7924788957531,12082.705072402954
-35.118102153476634,131.78981397501315,12083.035720825195
-35.10676671340671,131.78723614318625,12083.362009048462
-35.09543503177181,131.7845886402289,12083.693384170532
-35.08410710857195,131.78197597283676,12084.021852493286
-35.07278294380713,131.77936330544463,12084.348867416382
-35.06144750373719,131.77678547361774,12084.677335739136
-35.05012709740741,131.77419022400824,12085.004350662231
-35.03880293264259,131.77156013883348,12085.334272384644
-35.02747876787777,131.76898230700658,12085.662740707397
-35.016162119983015,131.76636963961445,12085.99193572998
-35.00484547208826,131.76375697222232,12086.319677352905
-34.99352882419352,131.76117914039543,12086.64814567566
-34.982212176298766,131.75863614413376,12086.9787940979
-34.97088425309891,131.75604089452426,12087.305082321167
-34.95957512207423,131.7534108093495,12087.637910842896
-34.94825471574445,131.7508329775226,12087.962018966675
-34.93694934315481,131.74822031013048,12088.293394088745
-34.92564397056516,131.74569473165144,12088.623315811157
-34.91432732267042,131.74306464647668,12088.950330734253
-34.9030144332107,131.74052165021502,12089.283159255981
-34.89171657749113,131.73792640060552,12089.608720779419
-34.88040368803142,131.73538340434385,12089.93936920166
-34.86910583231185,131.7327533191691,12090.270017623901
-34.85779294285214,131.73021032290742,12090.598485946655
-34.84651012087272,131.72768474442836,12090.928407669067
-34.835204748283076,131.7251243303841,12091.25832939148
-34.82391065099855,131.72245940964413,12091.588251113892
-34.81260527840891,131.71993383116506,12091.915992736816
-34.80130742268934,131.71735599933817,12092.246641159058
-34.79001332540481,131.71488267420696,12092.57656288147
-34.778722986555316,131.71227000681483,12092.904304504395
-34.76742888927078,131.70972701055317,12093.237859725952
-34.756142308856326,131.70718401429147,12093.564874649048
-34.744851970006835,131.70460618246457,12093.896249771118
-34.73356538959237,131.7020631862029,12094.225444793701
-34.722278809177915,131.6995724432891,12094.556093215942
-34.710988470328424,131.69697719367957,12094.886014938354
-34.699705648349,131.6944516152005,12095.215936660767
-34.68842658480462,131.69192603672147,12095.545858383179
-34.67714000439016,131.6893830404598,12095.87578010559
-34.66586469928081,131.6868226264155,12096.207155227661
-34.65458187730139,131.68429704793644,12096.535623550415
-34.64330657219204,131.68175405167477,12096.868452072144
-34.63202750864765,131.67924589097834,12097.196193695068
-34.620763478843415,131.67670289471667,12097.528295516968
-34.609488173734064,131.67422956958546,12097.858943939209
-34.59822038549479,131.67161690219334,12098.186685562134
-34.586948838820476,131.6691261592795,12098.52096748352
-34.57568480901624,131.6666702519309,12098.850889205933
-34.56440950390689,131.664092420104,12099.179357528687
-34.553141715667614,131.66156684162496,12099.513639450073
-34.54188144429841,131.65907609871113,12099.842107772827
-34.53062117292921,131.6565679380147,12100.173482894897
-34.519353384689936,131.65405977731825,12100.504858016968
-34.50809311332073,131.65158645218702,12100.83477973938
-34.4968403588216,131.64907829149058,12101.16615486145
-34.48557632901736,131.64653529522892,12101.49752998352
-34.474327332953266,131.6440619700977,12101.831811904907
-34.46307457845414,131.64157122718387,12102.158826828003
-34.45182182395501,131.63908048427004,12102.49238204956
-34.440569069455876,131.63660715913883,12102.82375717163
-34.42931631495675,131.63406416287717,12103.153678894043
-34.41807107732769,131.63155600218073,12103.4872341156
-34.406825839698634,131.6290652592669,12103.816429138184
-34.3955730851995,131.62662676970092,12104.149257659912
-34.38432784757045,131.62406635565662,12104.481359481812
-34.37309012681146,131.62162786609065,12104.813461303711
-34.36185240605248,131.6191545409594,12105.144109725952
-34.35060716842342,131.6166812158282,12105.475484848022
-34.33936944766444,131.614207890697,12105.806859970093
-34.32813548534049,131.61171714778317,12106.138961791992
-34.31690528145158,131.6092786582172,12106.470336914062
-34.305663802257556,131.60678791530336,12106.803165435791
-34.29444111523872,131.6043842613026,12107.13526725769
-34.28320715291477,131.60187610060615,12107.46664237976
-34.27197319059083,131.59942019325757,12107.798017501831
-34.26074298670191,131.59692945034374,12108.132299423218
-34.24952405811811,131.59449096077773,12108.4614944458
-34.23829761266423,131.59201763564653,12108.795049667358
-34.22707116721036,131.58957914608055,12109.127878189087
-34.21585223862656,131.58715807429718,12109.458526611328
-34.204637068477794,131.58466733138334,12109.794261932373
-34.19341438145896,131.58222884181737,12110.124183654785
-34.182195452875156,131.5797903522514,12110.455558776855
-34.170976524291355,131.57738669825062,12110.790567398071
-34.15976887101266,131.57491337311941,12111.121215820312
-34.14855745929893,131.5724748835534,12111.4554977417
-34.13733853071513,131.57001897620484,12111.787599563599
-34.12613087743644,131.56758048663883,12112.121154785156
-34.11492322415774,131.56512457929026,12112.451803207397
-34.10371932931409,131.5627383430721,12112.786085128784
-34.092515434470435,131.56031727128874,12113.118186950684
-34.08130778119174,131.5578265283749,12113.450288772583
-34.070103886348086,131.55545770993936,12113.785297393799
-34.0589075083745,131.55300180259079,12114.117399215698
-34.047714888835955,131.55059814859,12114.448774337769
-34.03650723555726,131.54819449458927,12114.785963058472
-34.02530709914864,131.54582567615373,12115.115884780884
-34.01412951335024,131.54335235102252,12115.4508934021
-34.00293689381169,131.54094869702178,12115.78154182434
-33.99173299896804,131.53857987858623,12116.117277145386
-33.9805516547346,131.53612397123763,12116.450105667114
