Latitude,Longitude,Altitude (m)
-10.889418741906791,15.73216191455246,11584.515132522583
-10.878405605498727,15.730625803299482,11584.587926044465
-10.867386217546818,15.729081182975424,11584.65934610367
-10.856363703822986,15.727522903353051,11584.734886550905
-10.845339106251204,15.725950292663596,11584.809053535462
-10.834312424831475,15.724358872448594,11584.884593982697
-10.823283659563797,15.722747747016351,11584.961507892609
-10.812253852372146,15.7211133336001,11585.039795265198
-10.801221961332546,15.719453169047682,11585.120829563142
-10.790185902597047,15.717764118438176,11585.201863861084
-10.779154011557447,15.716043270773579,11585.284271621706
-10.768124204365796,15.714288834670505,11585.368052845002
-10.757092313326194,15.712497227362185,11585.453207530976
-10.746065631906465,15.710666657465232,11585.53836221695
-10.735034782790839,15.70879309436703,11585.624890365601
-10.724011227143032,15.706875194530038,11585.714165439607
-10.712989755343175,15.704910270879182,11585.803440513611
-10.701973493163187,15.70289362103307,11585.894089050294
-10.690958272907176,15.70082479714586,11585.984737586976
-10.67995451381488,15.698699320759086,11586.078133049012
-10.668953880494508,15.696515624412287,11586.171528511048
-10.657953247174135,15.694271021030383,11586.26629743576
-10.646963033093506,15.691963271384147,11586.362439823151
-10.635979070556722,15.689587897015109,11586.458582210542
-10.625002401487757,15.687144450077428,11586.554724597932
-10.614035109734562,15.684627108575098,11586.653613910676
-10.603075111449186,15.682036320353967,11586.753876686098
-10.592124490479579,15.679367159109725,11586.852765998841
-10.581184288749714,15.676619176996526,11586.953028774262
-10.570252422411643,15.673787671632983,11587.054665012362
-10.559333059161265,15.670870627712786,11587.157674713137
-10.548426198998577,15.667865134237935,11587.259310951235
-10.537529758075632,15.664768728056277,11587.363694114687
-10.526645820240377,15.661578722092731,11587.466703815462
-10.515765008177047,15.658318852177153,11587.936428050996
-10.504900866897303,15.654972548013232,11588.620412464143
-10.494050270629225,15.65152682207142,11589.384057712556
-10.483218428992686,15.647980106891257,11590.157317199708
-10.47240950968358,15.644332850318587,11590.912721672059
-10.461638099637547,15.640588859043108,11591.63653650284
-10.45090003115869,15.636750372294047,11592.32326784134
-10.440209891182652,15.632821196761101,11592.967421836855
-10.429576015101224,15.628802899904732,11593.563504638672
-10.419000486762355,15.624697720954172,11594.11426317215
-10.408693774808848,15.619686549856446,11583.034539756776
-10.39854751914738,15.61426201704254,11564.906205883028
-10.38850128818744,15.6088323340014,11543.864757671357
-10.378517572665958,15.60355626208556,11521.872873287202
-10.368590121039087,15.598441414674404,11499.672222576142
-10.358714765610928,15.59343673734145,11477.498354387284
-10.348906093317124,15.588481323051596,11455.417194929125
-10.339168271853572,15.583526804453433,11433.436984977723
-10.32951380430796,15.578537801725101,11411.55909799576
-10.319944774528238,15.57349237042013,11389.7704860878
-10.310463266362355,15.568375283779742,11368.071149253847
-10.301073447506209,15.563179152347475,11346.454906911851
-10.291773234111849,15.557900393356555,11324.922445793152
-10.282568877723122,15.552536095808984,11303.468958778383
-10.273456210644133,15.54708424439845,11282.090325479508
-10.26443314902693,15.541546182662493,11260.789292821886
-10.255505944415361,15.53592280629281,11239.56174041748
-10.246667303341605,15.530212771751856,11218.407668266298
-10.237914100033738,15.524418318268864,11197.325016174318
-10.22925571180753,15.518538550152144,11176.312410678865
-10.22068171942324,15.512575930553849,11155.374658899309
-10.212196290576763,15.506530235551057,11134.507640447619
-10.203797341420149,15.500400793374997,11113.712042055131
-10.195480704257504,15.494190291100749,11092.987863721848
-10.187250546784723,15.487898952651232,11072.335792179108
-10.179103743229883,15.481527673718144,11051.752393770219
-10.171043419364908,15.47507555860979,11031.23766849518
-10.16306019787403,15.468545966170018,11010.797796936036
-10.155160330301094,15.461936881092516,10990.438272943498
-10.147337565102253,15.455249870837752,10970.193433084489
-10.139596069973406,15.448486055020338,10949.965761508944
-10.13192750952276,15.441646105409045,10929.753884754182
-10.124344386838,15.434730917695566,10909.557802820207
-10.116833156907468,15.427739596188207,10889.378889169695
-10.109396945503082,15.420675275807891,10869.21439687729
-10.102029501081,15.413536836940008,10849.064325942994
-10.094746452500832,15.406325399199167,10828.929363098146
-10.087529045131046,15.399041634354143,10808.809508342743
-10.080381446667534,15.391686214173701,10788.704074945452
-10.073304699034273,15.384260706118306,10768.613749637605
-10.06630088607921,15.376763990573341,10748.535785493852
-10.05936584010645,15.369198530690962,10728.472242708207
-10.052497477268044,15.361564550394093,10708.421061086656
-10.04569579756399,15.353862497528576,10688.382927360535
-10.038956633298394,15.346092819940262,10668.357841529847
-10.0322862360151,15.338256189397919,10648.346490325928
-10.025679396094237,15.330352605901547,10628.344753360749
-10.019130903915931,15.322385204372068,10608.356064291002
-10.012651178719928,15.314352641271947,10588.37767619133
-10.006225633570589,15.306256036215798,10568.412335987092
-9.999862603859704,15.298095837049468,10548.456610021592
-9.993557921891378,15.289874059079263,10528.511871757508
-9.987312629589589,15.281589806613495,10508.576061000826
-9.981129852726253,15.273244647112621,10488.651237945558
-9.974992920517787,15.264838804499567,10468.733968935014
-9.968916419899827,15.25637339838895,10448.827000894547
-9.962892015480582,15.247848204857844,10428.928960361482
-9.956917623412101,15.239265463135482,10409.038473873139
-9.950999495238232,15.230625621067711,10389.157601623536
-9.945133463263076,15.221927782962839,10369.282223224642
-9.939315359790736,15.213173068435479,10349.41371213913
-9.933545184821213,15.204363268869018,10329.552755098344
-9.92782606412643,15.195498384263457,10309.698665370943
-9.922152788086514,15.186580429925103,10289.848696031571
-9.916522230929544,15.177608062316418,10270.005594005586
-9.910941686123339,15.16858195320617,10250.166612367631
-9.905404902124053,15.159505461438208,10230.333124580384
-9.89990771123579,15.150376571706223,10210.504443912507
-9.894451155382523,15.141197523239448,10190.679196901323
-9.889040444184124,15.131967644269112,10170.855323352815
-9.8836672422488,15.122688502255677,10151.037630386354
-9.878333633424496,15.113360768967913,10131.219937419892
-9.873036491939294,15.103985452058975,10111.4070515728
-9.867779985489086,15.094563559182017,10091.593478994371
-9.86255265291016,15.085093634838039,10071.781966609957
-9.857364913442256,15.07557803021773,10051.971827688218
-9.85220843169358,15.066017864935713,10032.160315303803
-9.847088417284002,15.05641381076075,10012.350863113405
-9.841997576745706,15.046764748078232,9992.538663997651
-9.836935910078688,15.037073252001772,9972.727838344576
-9.8319055011309,15.027339658415753,9952.915639228822
-9.826903224130415,15.017563407512869,9933.099319725037
-9.82193012100121,15.007747298329662,9913.283000221254
-9.816978898275467,14.997890323212975,9893.462560329439
-9.812056849421001,14.987994161584732,9873.63937351227
-9.80715772289397,14.978059149329319,9853.81137957573
-9.802283602542323,14.968085398408197,9833.980638713838
-9.797429278746186,14.958074700204751,9814.145777463915
-9.792598919201458,14.948028286295058,9794.305422363283
-9.787787314288265,14.937943917449887,9774.459573411943
-9.782995505930584,14.927824952513086,9754.606857147219
-9.778219326432518,14.917671279523192,9734.747273569108
-9.773465027337911,14.907484242017746,9714.883569602967
-9.768719063635098,14.897263168227978,9695.010251398087
-9.763990812639848,14.887009961498734,9675.130065879823
-9.759281316276136,14.876725293598783,9655.240952854158
-9.754580155304216,14.86640938845105,9635.34359905243
-9.749888371648066,14.856063029785764,9615.436631011964
-9.745209091079607,14.845687225256082,9595.520048732758
-9.740543355522812,14.835282982515157,9575.593852214814
-9.735879703813968,14.824849517832757,9555.655981264115
-9.731226471344865,14.814389630245422,9535.708496074678
-9.726578448495633,14.80390175229269,9515.747962989808
-9.721936677190248,14.793388011242332,9495.775755472185
-9.717298031656785,14.782849638670426,9475.792560253145
-9.712661469971271,14.77228674653843,9455.795630407334
-9.70803011790563,14.761699558769271,9435.784965934754
-9.703396681992038,14.751088859093178,9415.760566835404
-9.698762204154473,14.74045666281646,9395.722433109284
-9.694128768240882,14.729802298170348,9375.668504562378
-9.689491164631393,14.719127220653844,9355.600154657364
-9.68485251909793,14.708431654189868,9335.516696662904
-9.680205538172673,14.697716046624267,9315.414696922304
-9.67555438955152,14.686983196993582,9295.298962554933
-9.67089907323447,14.676231873721736,9275.163999710085
-9.666235421525624,14.665462860538959,9255.01324204445
-9.661559266729087,14.654677836867174,9234.844629364015
-9.656873734616783,14.643877362513692,9214.6567882061
-9.652175699416786,14.633062221208741,9194.44971857071
-9.647468286901022,14.622231405299168,9174.22410718918
-9.64274941322154,14.611388385590281,9153.977893867494
-9.63801386875847,14.60053237835185,9133.71245206833
-9.63326373735976,14.589664727121415,9113.425034866334
-9.628494851329513,14.578786215629204,9093.117015724183
-9.623708252591705,14.56789740368253,9072.786334447861
-9.618907066918254,14.556998291281387,9052.435737962724
-9.614086084689294,14.54609167746232,9032.061105880739
-9.609238012437004,14.535176442610709,9011.663811664583
-9.60437222747715,14.524253706341172,8991.243168582918
-9.59948352018986,14.513325707882942,8970.799176635743
-9.594576058271036,14.50239143958286,8950.330462360384
-9.589635254785033,14.491452468901395,8929.837025756837
-9.58466944512365,14.480509803491694,8909.317493362429
-9.579677587362909,14.469564115122534,8888.773238639833
-9.574658639578837,14.4586162994856,8868.202888126374
-9.56960947599951,14.44766646854236,8847.6036948967
-9.564533222396854,14.436716861522042,8826.979779338837
-9.559418417607148,14.425767142540263,8806.328394527436
-9.55427339702219,14.414818879057485,8785.64679353714
-9.549098160641975,14.40387229499663,8764.937723293306
-9.543888540770611,14.392929069779623,8744.200497064592
-9.538639327788225,14.381988419676233,8723.431681194306
-9.533354689390714,14.371054487260537,8702.634709339143
-9.52802837403423,14.360124361534536,8681.808208036424
-9.52267080095852,14.349201513303537,8660.949430360795
-9.517271550923839,14.338285270798773,8640.059063043595
-9.511830623930186,14.327378097172398,8619.137792816164
-9.506345936129614,14.316479768501486,8598.182872753145
-9.500821655218019,14.305591404400657,8577.195676317217
-9.495249445803609,14.294714124484525,8556.175516777039
-9.489635559430226,14.283848264637474,8535.121707401277
-9.483974786478,14.272995728204354,8514.034934921267
-9.47826608502296,14.262156963031007,8492.911765680314
-9.472509455065104,14.251332752847667,8471.75288640976
-9.466703854680455,14.240524665114796,8450.558983840943
-9.460849283869017,14.229733147678239,8429.330744705201
-9.455421901887028,14.217610072579026,8390.963064823152
-9.450177898524514,14.204972870448202,8340.765064172745
-9.444910972834565,14.192512567426686,8284.806074323655
-9.439519016267703,14.180510410705987,8226.48129501343
-9.433973896876623,14.168989912193036,8167.302908649445
-9.428274572737351,14.157869172078682,8107.849829750062
-9.422433546937578,14.147051287717922,8048.319836940766
-9.41648207719653,14.136453743513565,7988.756881027222
-9.410433708525877,14.126013729085662,7929.158215084077
-9.404309279405101,14.11569161007681,7869.511477947236
-9.398124418693818,14.105462810946193,7809.796067676545
-9.391884336011898,14.09530980972507,7749.999623107911
-9.385609869838827,14.085224489207475,7690.1118432712565
-9.379301020174605,14.075199739840599,7630.121740465165
-9.372965080487052,14.065233546318133,7570.0251943016065
-9.366615595787835,14.055322381854038,7509.81739766121
-9.360251524152975,14.04546742204366,7449.4949168872845
-9.35388328482222,14.035666203734843,7389.055005054475
-9.347519213187361,14.025917159467127,7328.499722356797
-9.341163476944297,14.016220065317587,7267.829068794252
-9.334821285712898,14.006574249517454,7207.043044366837
-9.328499932960986,13.996978144606265,7146.145769462586
-9.322206712156378,13.987431190776714,7085.1372440814985
-9.315948916766896,13.977932268414184,7024.021588611604
-9.309732798336384,13.968479922019673,6962.802923440934
-9.303998048781986,13.958035932959884,6889.289707117082
-9.298538367156796,13.947214521813084,6806.786490840913
-9.29320163256057,13.936537484971002,6719.631356477738
-9.287918036087033,13.92620976788907,6630.483327770234
-9.282663613484775,13.91623691265964,6540.645820798874
-9.277455035537386,13.906550566810413,6450.66410024643
-9.272308973028451,13.897066815225926,6360.766160917283
-9.267232719425795,13.88772055231627,6271.038530960084
-9.26223773589313,13.878465258094154,6181.507306165696
-9.257327148202384,13.869270535022757,6092.173859996797
-9.2525030402015,13.860122108015725,6003.032011871339
-9.247757076498688,13.85101219575148,5914.071460819246
-9.243087173245996,13.841938950865904,5825.279845676423
-9.238477701583813,13.83290534033773,5736.64411854744
-9.233920326120344,13.823915842625423,5648.150544805527
-9.229404627615846,13.814975719917674,5559.784359726906
-9.224922270678524,13.80609224970949,5471.531141953468
-9.22045866837274,13.797272709495871,5383.375096664429
-9.216004443382722,13.788525272463515,5295.300429039002
-9.211543966848861,13.779857216107423,5207.291687622071
-9.207065777607436,13.771276153806985,5119.3327342271805
-9.202567791810502,13.762791938170821,5031.407430667878
-9.198023961358697,13.754412518462702,4943.498608660698
-9.193431160480102,13.746146739638094,4855.591160116196
-9.188771676467155,13.738003558613924,4767.669633579254
-9.184039257776007,13.729992716037351,4679.71720413208
-9.179217233623072,13.722124232459187,4591.719450416565
-9.174299352464505,13.714407120777087,4503.659547514916
-9.169266859668767,13.706852073310635,4415.524104166031
-9.164113503692015,13.699468326880414,4327.296982183457
-9.158824697598606,13.692269204900347,4238.96066991806
-9.153239985096503,13.685644809092976,4155.186313934327
-9.14789387318451,13.678978399747143,4075.818712949753
-9.142964530862224,13.672312634179715,4006.8015266990665
-9.138348807656195,13.665379896507131,3945.2566641426088
-9.133232960942516,13.65898261452459,3892.5723526811603
-9.127677422311693,13.652826049684458,3845.6950414180756
-9.121532154711431,13.647125587848471,3808.671294765473
-9.114392891639715,13.641826927707754,3777.6021955490114
-9.105957475144002,13.636543718248737,3738.7101962900165
-9.095804967938689,13.632191916188665,3690.9621096897126
-9.084103119783629,13.62924427879909,3636.667413239479
-9.07132808993507,13.627677434124905,3578.2396242284776
-9.058013343467838,13.62721990361213,3517.4752318382266
-9.044595446527152,13.627541596881635,3455.590093903542
-9.031405730936832,13.628344556493774,3393.3794453144073
-9.018663000731477,13.629395314810772,3331.3610815000534
-9.006495412559918,13.63051708468478,3269.8673804283144
-8.994982152644203,13.63158472119211,3209.1115721797946
-8.984148227159714,13.632506471914994,3149.223105611801
-8.973993636106453,13.633216251600727,3090.273400783539
-8.96449024753711,13.633661634294922,3032.296107530594
-8.955617222972203,13.633804189225888,2975.2967197036746
-8.947328717756863,13.633610579868437,2919.2609876275064
-8.939847703621583,13.632597384621803,2859.967745447159
-8.933027269285994,13.631006580194839,2797.9758207893374
-8.926775725440356,13.62905254479612,2734.63034866333
-8.921057646669547,13.626812307911221,2670.9569623231887
-8.915890745681128,13.624283546339809,2607.5464224028588
-8.910338332822228,13.623077469485224,2559.4750570249557
-8.904785919963329,13.622247471180113,2524.8528098630904
-8.899513784653507,13.62101178051894,2498.7882652759554
-8.894547974992124,13.61910784787428,2477.373921947479
-8.889823891692771,13.616594984830416,2458.169651749134
-8.88521754580251,13.613654820868401,2439.81246465683
-8.880616409532122,13.610477718463303,2421.5946840262413
-8.875929835495842,13.607221375333767,2403.167965385914
-8.871103643647011,13.604000160112802,2384.3738454794884
-8.86608990548281,13.600893733380332,2365.148114926815
-8.860870908295677,13.597953205543567,2345.4748072242737
-8.855433107073948,13.595209981792484,2325.361819782257
-8.849768166425827,13.592683347488844,2304.8287244439125
-8.843888589439004,13.590385226528301,2283.9011019515992
-8.837782914949766,13.588321105022478,2262.6057348275185
-8.831463646045801,13.586493782007912,2240.9742127132417
-8.82493807619493,13.58490558068493,2219.0348632764817
-8.81821037309305,13.58355487761234,2196.819104475975
-8.81128470443606,13.582439265618719,2174.357152490616
-8.804168363691776,13.581558492790776,2151.6783650851253
-8.79686864432802,13.580908556506262,2128.812786755562
-8.788958357515341,13.581229857910651,2112.3334665083885
-8.780743828902175,13.582009641500242,2101.673507623673
-8.772535551832853,13.582760287119456,2094.9212217378617
-8.764549204570052,13.583226382684042,2090.5225358319285
-8.756885853739275,13.58331567194966,2087.5139658379558
-8.749601763235134,13.583027399176437,2085.3727375245094
-8.742705268449422,13.582383480820482,2083.8384080314636
-8.736192201686244,13.581413586669116,2082.7894259119034
-8.7300583952497,13.58014131260037,2082.170680975914
-8.72429655567197,13.578559269157775,2081.681899945736
-8.718837915970756,13.576729790885073,2081.2896046686174
-8.713600164152085,13.574729487412354,2081.0004907751086
-8.70850932361379,13.57262304447405,2080.8090644145013
-8.70350600468933,13.57046087271824,2080.6966121578216
-8.698569368899227,13.568260494113664,2080.4562561893463
-8.693667116600272,13.56605342581176,2080.08816819191
-8.6887898704767,13.563862340008495,2079.63681401968
-8.683922001668899,13.561693646497549,2079.1415090417863
-8.679066635948788,13.559545749828091,2078.6271472692492
-8.674220647544445,13.557415487088836,2078.1064332318306
-8.669386120303818,13.555297652071815,2077.585890877247
-8.66455367691114,13.55318617086774,2077.068095448017
-8.65973477853013,13.551076341095222,2076.554248723984
-8.654916922073092,13.54896374027653,2076.044350705147
-8.650102191387978,13.546843638039913,2075.538573074341
-8.645286418778888,13.544713515252484,2075.0348556375507
-8.640471688093774,13.542568725513586,2074.535086905956
-8.63572572439096,13.54029039374138,2073.0301151776316
-8.631015186103273,13.537950259242377,2070.626212127209
-8.626308815511482,13.535619305583225,2067.6463131666183
-8.621593067603923,13.53333926639873,2064.3561833238605
-8.617275334654538,13.53045357168778,2054.961698613167
-8.613099303365653,13.527426329699015,2040.1204042911531
-8.608827415071133,13.524688368136628,2021.6878484344484
-8.60433255504612,13.522460670935425,2001.162822189331
-8.599654316401635,13.52065632801085,1978.1762074613573
-8.59480728607332,13.519311558895723,1953.4425482082368
-8.589853979499626,13.518394146679476,1927.728236603737
-8.584879834446447,13.517807832495508,1901.5842028641703
-8.579968204831724,13.517440458949675,1875.3481471252442
-8.575181606093915,13.517186754277718,1849.2073753595353
-8.570565882887887,13.516955777782464,1823.2582016372683
-8.56614812523697,13.516674670542784,1797.539941327572
-8.56193666853296,13.516285800396325,1772.0623803520202
-8.557904422752523,13.515777159476334,1746.9235496091844
-8.553947195498235,13.515228240420537,1721.9730549359322
-8.549923285109594,13.514805473941584,1696.9820431137086
-8.545711828405583,13.514717612184603,1671.741747815609
-8.541239890708004,13.515174442938244,1646.0983412218095
