Latitude,Longitude,Altitude (m)
55.058945,-122.91778,11535.0625
55.0365,-122.91193,11535.254
55.01349,-122.90378,11536.502
54.990093,-122.89517,11538.99
54.96813,-122.892944,11539.078
54.947052,-122.89107,11536.677
54.925606,-122.88523,11533.802
54.9023,-122.87315,11533.912
54.878155,-122.86225,11536.399
54.85539,-122.85903,11537.154
54.832657,-122.85336,11537.9
54.809307,-122.84465,11540.079
54.78642,-122.838844,11541.863
54.763653,-122.83286,11543.482
54.741264,-122.8277,11544.349
54.719757,-122.825035,11542.989
54.69708,-122.81602,11543.099
54.674736,-122.8103,11542.45
54.65293,-122.806564,11540.201
54.63123,-122.80177,11536.932
54.608326,-122.79218,11535.363
54.584988,-122.78357,11534.879
54.561634,-122.77641,11534.919
54.538624,-122.770744,11534.786
54.515675,-122.76455,11534.799
54.493088,-122.75927,11534.319
54.470406,-122.753006,11533.936
54.44782,-122.74695,11533.418
54.425716,-122.74251,11531.804
54.403923,-122.738205,11529.047
54.381798,-122.73178,11526.292
54.35849,-122.72168,11525.64
54.335014,-122.71363,11525.93
54.311077,-122.70492,11527.877
54.28767,-122.69898,11529.8545
54.264812,-122.69415,11531.297
54.24318,-122.692314,11530.324
54.221012,-122.68569,11529.631
54.197845,-122.67586,11530.769
54.17432,-122.66717,11533.158
54.151554,-122.662384,11534.747
54.12955,-122.65894,11534.865
54.107536,-122.65352,11534.558
54.085835,-122.64892,11533.128
54.06363,-122.64186,11532.078
54.04119,-122.63495,11531.233
54.018917,-122.62933,11529.957
53.99545,-122.61919,11531.056
53.972603,-122.61364,11531.669
53.94951,-122.60656,11533.054
53.92676,-122.60082,11534.27
53.904724,-122.59714,11534.131
53.882458,-122.59091,11534.116
53.859962,-122.58401,11534.394
53.83772,-122.57858,11534.125
53.815243,-122.57192,11534.138
53.79221,-122.56355,11535.398
53.76934,-122.55698,11536.856
53.746716,-122.55124,11538.1875
53.724358,-122.54573,11539.218
53.702927,-122.54297,11538.284
53.680935,-122.53621,11537.765
53.658524,-122.528656,11537.894
53.636635,-122.52416,11536.9375
53.614685,-122.518585,11535.704
53.592518,-122.512146,11534.585
53.570034,-122.50514,11533.927
53.547604,-122.49913,11533.163
53.52484,-122.491905,11533.092
53.501926,-122.484825,11533.594
53.479282,-122.47918,11533.903
53.457066,-122.47458,11533.479
53.43454,-122.46777,11533.591
53.412773,-122.4642,11532.17
53.390495,-122.45737,11531.305
53.367657,-122.44901,11531.673
53.34524,-122.44367,11531.548
53.322754,-122.43744,11531.678
53.300888,-122.43347,11530.624
53.279324,-122.42944,11528.477
53.257164,-122.42237,11526.923
53.234196,-122.41337,11526.966
53.211483,-122.40737,11526.93
53.189377,-122.40348,11525.787
53.166626,-122.395775,11525.809
53.14368,-122.38843,11526.574
53.121307,-122.38384,11526.528
53.098763,-122.37752,11526.8125
53.076828,-122.37351,11525.846
53.05468,-122.36764,11524.832
53.031773,-122.35913,11525.212
53.008636,-122.351425,11526.474
52.986195,-122.34709,11526.78
52.963917,-122.34204,11526.665
52.941494,-122.33579,11526.673
52.919106,-122.32991,11526.504
52.896175,-122.32206,11527.366
52.87355,-122.31645,11527.913
52.850338,-122.30827,11529.794
52.82728,-122.301605,11531.976
52.804832,-122.297226,11533.217
52.783108,-122.29415,11532.756
52.76112,-122.28838,11532.101
52.73773,-122.27769,11533.995
52.715088,-122.272766,11534.929
52.692745,-122.26812,11535.159
52.669785,-122.26016,11536.551
52.646233,-122.25105,11539.636
52.622852,-122.24398,11543.288
52.600163,-122.23935,11546.215
52.57866,-122.23747,11546.794
52.556675,-122.231155,11547.615
52.535336,-122.227585,11546.673
52.51375,-122.222206,11545.227
52.491013,-122.21275,11545.595
52.468544,-122.20681,11545.659
52.446793,-122.20366,11544.097
52.4244,-122.19658,11543.306
52.402164,-122.19108,11542.083
52.37947,-122.18398,11541.547
52.356686,-122.17734,11541.376
52.33327,-122.16872,11542.842
52.309933,-122.161644,11544.995
52.28641,-122.15393,11548.372
52.263927,-122.15017,11550.543
52.241592,-122.144875,11552.551
52.220676,-122.144035,11551.516
52.199276,-122.13861,11550.267
52.177555,-122.1323,11548.974
52.1554,-122.1254,11548.063
52.133064,-122.11866,11547.478
52.111103,-122.11406,11546.085
52.088043,-122.10476,11546.87
52.065094,-122.09778,11548.271
52.041622,-122.08911,11551.516
52.019,-122.08442,11554.151
51.997288,-122.081604,11555.202
51.975853,-122.07753,11555.279
51.953926,-122.07082,11555.775
51.932335,-122.06618,11555.29
51.91018,-122.059135,11555.453
51.887497,-122.05105,11556.778
51.866016,-122.04884,11555.814
51.845104,-122.04665,11552.818
51.82357,-122.040565,11549.949
51.80158,-122.03388,11547.352
51.779743,-122.029106,11544.032
51.757095,-122.02134,11541.991
51.735497,-122.01907,11537.809
51.714447,-122.01736,11531.462
51.69182,-122.008354,11527.188
51.669567,-122.00361,11522.137
51.64852,-122.00366,11513.967
51.626472,-121.99754,11506.473
51.604233,-121.99203,11498.834
51.58029,-121.981346,11494.403
51.555187,-121.96959,11493.673
51.530006,-121.96042,11495.275
51.500813,-121.93635,11508.285
51.47349,-121.926414,11523.689
51.450127,-121.92893,11535.053
51.429043,-121.93076,11542.746
51.40856,-121.92823,11548.482
51.388416,-121.92466,11552.296
51.367634,-121.91779,11556.071
51.34686,-121.91215,11559.003
51.326836,-121.9098,11559.361
51.3067,-121.90585,11558.31
51.286648,-121.902374,11555.477
51.264805,-121.89236,11554.88
51.243004,-121.88614,11554.087
51.220726,-121.879,11554.13
51.19835,-121.872406,11554.656
51.17618,-121.86707,11554.971
51.15412,-121.86178,11555.152
51.131786,-121.85515,11555.926
51.10953,-121.849144,11556.784
51.08738,-121.84357,11557.565
51.065784,-121.8399,11557.142
51.04446,-121.8362,11555.599
51.02301,-121.83134,11553.537
51.000698,-121.823425,11552.694
50.977535,-121.81397,11553.892
50.954098,-121.80546,11556.671
50.931652,-121.80159,11558.442
50.90908,-121.795334,11560.822
50.88659,-121.78903,11563.562
50.86311,-121.77881,11568.992
50.842113,-121.779625,11570.311
50.820515,-121.77405,11571.899
50.799446,-121.77031,11571.945
50.778263,-121.76568,11571.153
50.757595,-121.763115,11568.251
50.73615,-121.75686,11565.562
50.7143,-121.75044,11563.007
50.692013,-121.7438,11560.898
50.669353,-121.73686,11559.529
50.645527,-121.72642,11561.049
50.62192,-121.71904,11563.536
50.599586,-121.71641,11564.385
50.57708,-121.710495,11565.689
50.555748,-121.70871,11564.597
50.534492,-121.7051,11562.384
50.512035,-121.696304,11561.949
50.489647,-121.690155,11561.523
50.468082,-121.68755,11559.317
50.446182,-121.68227,11557.087
50.42338,-121.67379,11556.463
50.40055,-121.66712,11556.267
50.37639,-121.655876,11559.456
50.352676,-121.64863,11563.464
50.330193,-121.64567,11566.04
50.308468,-121.64286,11567.162
50.286762,-121.63806,11567.797
50.265408,-121.634285,11567.177
50.2436,-121.628075,11566.743
50.22055,-121.61788,11568.769
50.19711,-121.60867,11572.613
50.175438,-121.60742,11573.744
50.15395,-121.6038,11574.007
50.132534,-121.59922,11573.555
50.110718,-121.59305,11573.274
50.088543,-121.58624,11573.48
50.065193,-121.57577,11576.443
50.042015,-121.56824,11580.317
50.01997,-121.56513,11582.75
49.997677,-121.5587,11585.85
49.975945,-121.55426,11588.0625
49.95448,-121.54992,11589.439
49.933403,-121.54634,11589.4795
49.912292,-121.54183,11588.76
49.890587,-121.53503,11588.592
49.86889,-121.52948,11588.197
49.84754,-121.52569,11586.74
49.82581,-121.51987,11585.513
49.803734,-121.513245,11584.8545
49.781086,-121.50522,11585.66
49.759266,-121.50154,11585.279
49.737373,-121.49632,11584.946
49.716217,-121.49367,11582.904
49.694786,-121.488754,11580.613
49.672733,-121.481705,11579.185
49.650646,-121.4759,11577.856
49.628704,-121.47105,11576.224
49.60607,-121.46334,11576.037
49.583122,-121.4556,11577.179
49.561485,-121.45368,11576.19
49.539345,-121.44759,11575.891
49.516636,-121.43959,11576.997
49.49524,-121.43783,11575.714
49.47296,-121.430664,11575.688
49.450756,-121.42468,11575.752
49.42833,-121.418236,11576.349
49.40516,-121.4093,11578.947
49.382027,-121.4017,11582.605
49.359745,-121.39759,11585.356
49.338833,-121.397064,11585.194
49.3178,-121.39328,11584.072
49.296394,-121.387794,11582.652
49.27491,-121.382935,11580.506
49.253838,-121.38017,11576.542
49.23134,-121.37156,11574.549
49.209488,-121.36786,11571.247
49.188015,-121.3653,11566.433
49.16688,-121.363205,11559.813
49.144707,-121.356636,11554.188
49.117725,-121.33324,11559.343
49.091408,-121.321014,11567.806
49.067596,-121.31895,11574.595
49.044727,-121.315094,11581.039
49.023335,-121.31367,11585.054
49.002083,-121.30957,11588.179
48.981255,-121.306145,11589.686
48.95976,-121.29945,11591.598
48.93725,-121.289795,11595.504
48.91556,-121.28539,11598.22
48.894638,-121.28308,11598.951
48.87383,-121.27948,11598.489
48.85193,-121.27129,11599.445
48.829346,-121.262474,11602.003
48.807373,-121.257645,11603.898
48.78591,-121.25402,11604.738
48.764263,-121.24849,11605.632
48.74309,-121.244835,11605.245
48.722176,-121.24164,11603.472
48.700092,-121.23345,11603.301
48.67742,-121.22492,11604.633
48.654724,-121.21787,11606.713
48.631866,-121.21057,11609.9
48.61099,-121.21114,11609.406
48.589596,-121.206406,11608.859
48.567192,-121.19769,11610.064
48.543915,-121.18763,11613.677
48.519398,-121.1746,11621.56
48.49655,-121.1702,11628.402
48.47413,-121.16482,11635.379
48.45337,-121.16399,11639.362
48.432438,-121.15931,11642.802
48.41244,-121.157814,11643.315
48.393887,-121.16069,11638.514
48.375435,-121.161674,11629.787
48.35583,-121.15802,11619.88
48.33384,-121.14779,11612.708
48.310543,-121.13753,11608.211
48.287266,-121.130974,11604.576
48.264233,-121.12584,11601.33
48.24081,-121.118614,11599.72
48.21639,-121.10776,11601.704
48.19383,-121.10569,11601.75
48.171135,-121.100174,11602.497
48.149414,-121.097435,11601.712
48.12787,-121.09308,11600.198
48.10421,-121.078735,11603.306
48.079487,-121.0627,11610.934
48.05658,-121.05585,11617.484
48.033237,-121.04427,11626.436
48.01229,-121.041405,11631.919
47.990784,-121.03249,11638.201
47.96861,-121.02082,11646.389
47.947773,-121.015724,11652.438
47.927303,-121.01016,11657.133
47.908012,-121.00806,11658.205
47.887833,-121.000694,11659.07
47.86824,-120.99686,11657.284
47.84687,-120.98595,11657.553
47.827446,-120.98569,11653.008
47.807373,-120.98103,11647.261
47.786007,-120.97194,11642.558
47.764076,-120.963554,11638.374
47.74194,-120.956154,11634.3955
47.721165,-120.95484,11627.053
47.698624,-120.9448,11622.046
47.674847,-120.932236,11620.2
47.6509,-120.92194,11620.217
47.627663,-120.91494,11620.371
47.60494,-120.908516,11620.439
47.58297,-120.903694,11619.314
47.560665,-120.89596,11618.765
47.53682,-120.88225,11622.107
47.51274,-120.87,11628.054
47.49089,-120.86723,11631.111
47.469807,-120.86356,11632.38
47.448566,-120.85685,11633.357
47.42762,-120.85121,11633.085
47.40678,-120.845695,11631.625
47.385536,-120.83847,11630.087
47.36373,-120.829895,11629.245
47.34201,-120.82291,11628.139
47.320976,-120.81892,11625.132
47.30026,-120.81524,11620.25
47.27834,-120.80625,11616.702
47.25495,-120.79344,11616.438
47.231804,-120.78448,11617.062
47.20963,-120.77943,11616.603
47.18706,-120.77092,11617.321
47.164917,-120.76405,11617.828
47.14278,-120.75664,11618.644
47.120415,-120.74791,11620.5205
47.09691,-120.73475,11625.997
47.07506,-120.729675,11629.817
47.053997,-120.72525,11632.212
47.03357,-120.721085,11632.827
47.01323,-120.715935,11632.206
46.99206,-120.70726,11632.378
46.969986,-120.69641,11634.5
46.94883,-120.69114,11635.199
46.92723,-120.68311,11636.597
46.90634,-120.67814,11636.544
46.88513,-120.671074,11636.544
46.86345,-120.66249,11637.315
46.842052,-120.65596,11637.553
46.820065,-120.64693,11638.945
46.798313,-120.63966,11640.233
46.776714,-120.63293,11641.251
46.754833,-120.62467,11642.863
46.733307,-120.61824,11643.842
46.711308,-120.60951,11645.736
46.689045,-120.60024,11648.684
46.667095,-120.592735,11651.601
46.64527,-120.58525,11654.617
46.62384,-120.57879,11657.061
46.602604,-120.57237,11658.896
46.58167,-120.56667,11659.639
46.560482,-120.55953,11660.235
46.539238,-120.552536,11660.484
46.517765,-120.54505,11660.774
46.495358,-120.53437,11663.02
46.47301,-120.52557,11665.916
46.45087,-120.51784,11669.049
46.4298,-120.51388,11670.17
46.40887,-120.50875,11670.23
46.388096,-120.50365,11669.016
46.366543,-120.4954,11668.434
46.34504,-120.4888,11667.309
46.323753,-120.48356,11665.061
46.30228,-120.47744,11662.337
46.27982,-120.467804,11661.207
46.25599,-120.454384,11663.735
46.23363,-120.44921,11664.736
46.211456,-120.44295,11665.553
46.188046,-120.43056,11669.558
46.164814,-120.42033,11674.91
46.14143,-120.40946,11682.203
46.119034,-120.40212,11689.144
46.097614,-120.3968,11694.686
46.077106,-120.39289,11697.989
46.057156,-120.3894,11698.867
46.035976,-120.37993,11700.918
46.015,-120.37314,11702.111
45.994423,-120.36843,11701.614
45.972694,-120.358696,11702.66
45.95101,-120.35085,11703.742
45.92929,-120.34337,11704.923
45.90846,-120.339615,11704.04
45.888237,-120.33709,11700.676
45.868507,-120.33557,11694.331
45.847095,-120.326805,11689.481
45.825214,-120.31893,11685.09
45.803017,-120.311676,11681.1
45.780075,-120.302284,11678.938
45.756927,-120.29321,11678.196
45.733196,-120.28224,11680.022
45.709614,-120.272385,11683.503
45.68633,-120.2632,11688.225
45.663723,-120.25568,11693.066
45.642452,-120.25189,11695.8
45.62123,-120.245766,11698.028
45.600597,-120.24125,11698.492
45.579872,-120.23568,11698.028
45.558285,-120.22668,11698.652
45.536674,-120.21901,11699.312
45.51647,-120.21754,11696.4795
45.496162,-120.21389,11692.032
45.47547,-120.20864,11686.756
45.452812,-120.1966,11684.77
45.42974,-120.186134,11684.712
45.407223,-120.17922,11684.707
45.38421,-120.16938,11686.766
45.36123,-120.15978,11690.361
45.339027,-120.152985,11693.748
45.31674,-120.14423,11698.25
45.294834,-120.13646,11702.932
45.273148,-120.12868,11707.841
45.251766,-120.121376,11712.572
45.23069,-120.11458,11716.818
45.21037,-120.11034,11719.0625
45.189453,-120.102585,11721.621
45.168617,-120.095856,11723.547
45.147293,-120.08759,11725.968
45.12662,-120.08276,11726.695
45.105606,-120.07612,11727.2
45.083946,-120.06714,11728.685
45.062077,-120.05862,11730.742
45.039867,-120.04921,11733.956
45.018585,-120.04408,11735.6875
44.997105,-120.03694,11737.543
44.975857,-120.03062,11738.788
44.95401,-120.021645,11741.113
44.93165,-120.01125,11745.135
44.910213,-120.005455,11747.972
44.889328,-120.00072,11749.412
44.86861,-119.99542,11749.816
44.847813,-119.98951,11749.513
44.82586,-119.97916,11751.177
44.80445,-119.97278,11752.064
44.783928,-119.96992,11750.5205
44.76342,-119.965904,11747.541
44.7435,-119.96414,11741.619
44.72238,-119.95736,11736.084
44.69984,-119.94689,11732.792
44.677513,-119.94022,11729.333
44.653374,-119.92676,11730.263
44.627533,-119.90855,11737.697
44.603664,-119.90079,11744.868
44.581505,-119.89694,11750.186
44.559746,-119.89084,11755.001
44.53893,-119.88678,11757.628
44.518536,-119.88292,11758.125
44.49754,-119.87594,11758.435
44.475735,-119.8666,11759.784
44.45329,-119.856285,11762.723
44.431026,-119.84797,11766.005
44.41022,-119.84547,11766.33
44.389748,-119.84232,11764.589
44.368584,-119.83547,11762.862
44.347076,-119.82842,11761.056
44.323864,-119.81541,11762.934
44.301796,-119.80947,11763.733
44.280212,-119.804436,11763.673
44.25923,-119.80055,11762.008
44.238907,-119.79839,11757.786
44.21798,-119.79298,11753.131
44.196022,-119.78436,11749.774
44.17248,-119.771355,11750.221
44.148132,-119.75764,11754.5205
44.124252,-119.747154,11760.61
44.10179,-119.74135,11765.779
44.080334,-119.73679,11769.481
44.0592,-119.731155,11772.273
44.03839,-119.72581,11773.806
44.018288,-119.72287,11772.746
43.9971,-119.71483,11772.512
43.975254,-119.70549,11773.425
43.953968,-119.700066,11773.137
43.931553,-119.689766,11775.022
43.90913,-119.68064,11777.817
43.886673,-119.671814,11781.484
43.865223,-119.66699,11783.545
43.844234,-119.66261,11784.068
43.82258,-119.65451,11785.289
43.80079,-119.646515,11786.791
43.779217,-119.63987,11787.917
43.757492,-119.632256,11789.472
43.735207,-119.62227,11792.767
43.713493,-119.61513,11795.849
43.691875,-119.60758,11799.266
43.671032,-119.60257,11801.344
43.650642,-119.59821,11801.91
43.630108,-119.59245,11801.875
43.609955,-119.58849,11800.028
43.58885,-119.58053,11799.102
43.56777,-119.57403,11797.8955
43.54629,-119.566635,11797.267
43.524555,-119.558876,11797.384
43.503197,-119.55325,11796.8955
43.482075,-119.54841,11795.542
43.460457,-119.5411,11794.825
43.43911,-119.535576,11793.433
43.41729,-119.52807,11792.758
43.396084,-119.52363,11790.753
43.373425,-119.512634,11791.714
43.349663,-119.49853,11796.818
43.32637,-119.48789,11803.649
43.303932,-119.479904,11810.811
43.283703,-119.479004,11814.082
43.26435,-119.478226,11813.975
43.244404,-119.47299,11813.142
43.223553,-119.46476,11813.078
43.202686,-119.458206,11812.674
43.180744,-119.447876,11814.507
43.159576,-119.44225,11815.359
43.138664,-119.43723,11815.3545
43.118538,-119.434975,11812.837
43.09745,-119.4279,11811.046
43.076157,-119.42094,11809.438
43.05412,-119.41168,11809.562
43.032127,-119.40347,11810.531
43.010567,-119.39706,11811.403
42.989395,-119.39151,11811.767
42.968334,-119.38575,11811.788
42.94625,-119.37545,11814.138
42.924133,-119.36611,11817.721
42.90365,-119.36378,11818.409
42.883293,-119.359726,11817.933
42.862385,-119.35247,11817.968
42.841263,-119.34514,11818.321
42.819992,-119.33777,11819.083
42.799088,-119.332146,11819.217
42.77747,-119.32306,11821.033
42.756126,-119.315735,11823.039
42.73447,-119.30709,11826.221
42.7129,-119.29897,11830.021
42.691296,-119.290596,11834.542
42.671223,-119.28846,11835.889
42.651638,-119.28666,11834.484
42.629623,-119.2739,11836.973
42.607784,-119.26481,11840.069
42.586185,-119.257355,11843.332
42.56455,-119.24896,11847.478
42.543465,-119.242256,11851.313
42.523426,-119.23889,11852.977
42.502907,-119.23193,11854.964
42.483295,-119.229004,11854.437
42.464092,-119.227264,11851.209
42.443657,-119.22026,11848.663
42.42117,-119.20679,11850.233
42.39946,-119.199844,11851.395
42.377563,-119.192055,11853.422
42.35639,-119.186874,11854.486
42.33557,-119.18214,11854.542
42.313953,-119.17328,11856.081
42.291946,-119.16349,11859.216
42.270454,-119.156494,11862.199
42.24909,-119.14935,11865.371
42.229404,-119.14879,11864.661
42.210308,-119.14884,11860.375
42.19001,-119.1433,11856.021
42.168015,-119.13271,11854.201
42.14478,-119.119995,11855.804
42.122456,-119.11328,11857.016
42.100704,-119.10813,11857.544
42.079453,-119.1037,11856.977
42.057438,-119.09508,11857.896
42.03578,-119.088455,11858.653
42.014614,-119.08368,11858.363
41.993042,-119.076416,11858.687
41.971474,-119.06957,11859.036
41.948887,-119.05867,11861.925
41.926266,-119.04859,11866.344
41.905354,-119.04563,11868.025
41.885506,-119.04507,11866.284
41.86498,-119.03978,11864.229
41.84388,-119.032745,11862.515
41.82265,-119.0264,11860.738
41.799286,-119.0116,11864.187
41.77581,-118.9984,11870.893
41.753593,-118.99067,11877.645
41.733067,-118.98767,11881.952
41.713524,-118.98576,11883.477
41.693325,-118.979324,11884.993
41.674244,-118.9784,11882.7295
41.653908,-118.97203,11880.805
41.632385,-118.96246,11880.575
41.610416,-118.95349,11881.48
41.58858,-118.946236,11882.606
41.566906,-118.93936,11883.875
41.546013,-118.935234,11883.64
41.52469,-118.928345,11883.872
41.504883,-118.92791,11880.329
41.48404,-118.92197,11877.21
41.463123,-118.916595,11873.589
41.44165,-118.90984,11870.557
41.419895,-118.90277,11868.203
41.39603,-118.8874,11871.544
41.3729,-118.87704,11876.4795
41.351128,-118.87158,11880.5205
41.332554,-118.87704,11877.371
41.31197,-118.86996,11875.838
41.29027,-118.85948,11876.529
41.26721,-118.84531,11881.439
41.24448,-118.83407,11888.38
41.22604,-118.84027,11886.99
41.209515,-118.84962,11877.304
41.18909,-118.83969,11871.364
41.16675,-118.82646,11869.225
41.143475,-118.81364,11870.66
41.119736,-118.80032,11876.02
41.096718,-118.7899,11883.227
41.07312,-118.77505,11895.019
41.051,-118.76521,11907.477
41.030643,-118.75995,11918.141
41.012596,-118.760826,11923.537
40.997707,-118.77175,11918.247
40.979225,-118.76444,11914.711
40.96086,-118.76202,11908.185
40.94037,-118.75387,11903.303
40.91795,-118.741104,11902.3545
40.89521,-118.73042,11903.613
40.8731,-118.723465,11905.037
40.85221,-118.720764,11904.266
