Latitude,Longitude,Altitude (m)
22.90371776915008,120.27313032921917,10.901922940194606
22.90372239514036,120.27313037904344,10.845054740488528
22.903726960028134,120.27313043434958,10.788179191887378
22.90373146501149,120.27313049513761,10.731295069575308
22.903735908207718,120.2731305611639,10.67439747428894
22.90374028927451,120.27313063267206,10.617494979739188
22.903744607013774,120.27313070947939,10.560585136294364
22.903748862281287,120.27313079146404,10.503666719138621
22.90375305319434,120.27313087862605,10.446739728271961
22.90375717992409,120.27313097096538,10.389805388510226
22.90376124127244,120.27313106836024,10.33286369985342
22.903765236383627,120.27313117081061,10.275915887117385
22.9037691654288,120.27313127825559,10.21895888826251
22.90377302703871,120.27313139063428,10.16199637773633
22.90377682172683,120.27313150794664,10.105028967946767
22.90378054829507,120.27313163013181,10.048052984446286
22.903784205031872,120.27313175700704,9.991067202419043
22.90378779313533,120.27313188881595,9.93407958316803
22.903791310893887,120.27313202519312,9.87708583983779
22.903794758478696,120.27313216638215,9.820087197244167
22.903798134178203,120.2731323118958,9.763081818163394
22.903801438848188,120.2731324620995,9.706067865371704
22.903804670605936,120.2731326167496,9.649053912580012
22.903807829622608,120.27313277584615,9.592033835709094
22.903810914700113,120.2731329393891,9.535006409943103
22.90381392515383,120.27313310731756,9.477975922137498
22.903816861326067,120.27313327944881,9.420941147476434
22.90381972270336,120.27313345584375,9.363902698367834
22.903822507231844,120.27313363638055,9.306859962403774
22.903825215082676,120.27313382112013,9.249810489952564
22.90382784557123,120.27313400994068,9.192763467133044
22.903830398697504,120.27313420259854,9.135709095418452
22.903832873092263,120.27313439945918,9.078651049256324
22.903835268755497,120.27313460009624,9.021589941054582
22.90383758431797,120.27313480475334,8.964527608036994
22.903839820293143,120.27313501318686,8.907462825387716
22.903841975140622,120.27313522527497,8.85039191865921
22.903844048518092,120.27313544107858,8.793323461562395
22.903846039912086,120.27313566059769,8.736251942425966
22.903847948809144,120.27313588371048,8.679179198473692
22.903849774524634,120.27313611035605,8.622102780073881
22.903851516545096,120.27313634053438,8.565028198897839
22.90385317367244,120.27313657412367,8.507951780498027
22.903854745393204,120.273136811063,8.450870462834834
22.90385623324778,120.27313705129146,8.3937934320271
22.903857633470754,120.27313729493086,8.336715176403523
22.90385894760252,120.27313754179849,8.279635083556174
22.903860174616145,120.27313779165071,8.222555603116751
22.90386131280008,120.27313804473116,8.165477959901095
22.903862362838943,120.2731383009789,8.108399091869591
22.903863323192333,120.27313856002851,8.051321448653935
22.90386419403141,120.27313882224543,7.9942468674778935
22.90386497501386,120.27313908720329,7.937171673893928
22.90386566477044,120.27313935508482,7.8800977051258085
22.903866262274214,120.27313962582912,7.8230255735814564
22.903866769065587,120.27313989937527,7.765956504076719
22.903867181892604,120.27314017535781,7.70888927179575
22.903867501611035,120.27314045420312,7.651825101554393
22.90386772787858,120.27314073548482,7.5947621561288825
22.90386785881252,120.27314101944656,7.537704722374677
22.90386789492633,120.27314130578377,7.480650350660085
22.90386783502191,120.27314159449647,7.423599040985107
22.9038676785858,120.27314188576739,7.366551405757665
22.903867425618003,120.27314217935287,7.309510507017373
22.903867075091583,120.2731424749484,7.252472057908773
22.90386662546614,120.27314277304122,7.195438508063554
22.90386607811092,120.27314307326589,7.138409857481718
22.903865430972054,120.2731433756833,7.081386718571186
22.903864683707233,120.27314368011075,7.024373378187417
22.9038638361453,120.27314398654822,6.967363099843263
22.903862886574707,120.2731442949957,6.910357108354568
22.903861835508913,120.27314460539232,6.853361527800559
22.903860682434452,120.2731449174944,6.796373908549547
22.903859425468614,120.27314523178924,6.739391188561916
22.90385806546718,120.27314554754592,6.682419491916894
22.903856600718594,120.27314586506898,6.625455144166946
22.903855030880543,120.27314618435844,6.568496308088302
22.90385335595303,120.27314650517063,6.511549720168113
22.903851575251426,120.27314682768831,6.4546129307746885
22.903849686721873,120.27314715178963,6.397684715092182
22.903847691391302,120.27314747729189,6.340768135160207
22.903845587377003,120.27314780431689,6.283861353754997
22.903843375705904,120.27314813280373,6.226965595692396
22.903841054495302,120.27314846250876,6.170083310604095
22.90383862237595,120.27314879367563,6.113211436450481
22.903836080888244,120.27314912593887,6.056354872494936
22.903833428320635,120.27314945948123,5.999506882250309
22.903830663303875,120.2731497943027,5.94267420220375
22.90382778600912,120.27315013022053,5.885854995131492
22.903824796094064,120.27315046723474,5.829051710665226
22.903821691847146,120.27315080534534,5.7722637363970275
22.90381847463761,120.2731511444914,5.715489847511053
22.90381514104235,120.27315148455111,5.658731881231069
22.903811692430608,120.27315182552447,5.601992287188768
22.903808127604297,120.27315216741147,5.545268615752458
22.90380444639226,120.2731525101512,5.488564541369676
22.903800647082942,120.27315285362187,5.431877614408731
22.9037967298475,120.27315319818891,5.3752072224617
22.903792694172466,120.2731535430605,5.318558877199888
22.903788539030906,120.27315388878482,5.261930128991604
22.90378426339589,120.27315423517916,5.205323427468538
22.903779867952043,120.27315458212168,5.148737547814846
22.903775351158956,120.2731549297342,5.09217310243845
22.903770712332015,120.27315527801674,5.0356319285631175
22.90376595027313,120.27315562648202,4.979114638596773
22.90376106566692,120.27315597549547,4.922622457355261
22.903756057315302,120.27315632499621,4.866154466226696
22.90375092453365,120.27315667492331,4.809714033454656
22.90374566595272,120.27315702515497,4.7532984032034875
22.903740282599447,120.27315737569117,4.696910331308842
22.903734772419963,120.27315772659284,4.640551042586565
22.903729134558493,120.27315807761632,4.584221455648541
22.90372336987081,120.27315842894436,4.527920039474964
22.903717476645365,120.27315878033329,4.471651999533176
22.903711453684068,120.27315913190496,4.4154133551716805
22.903705301158073,120.27315948372028,4.359210536673665
22.903699019409693,120.27315983553558,4.303038644775748
22.903692606042746,120.2731601874118,4.24690227253735
22.90368606105724,120.27316053922712,4.190799888938665
22.903679384110855,120.27316089092061,4.134737005650997
22.903672573834356,120.27316124285774,4.078710254430771
22.90366563057005,120.27316159455123,4.022723309725523
22.903658552777536,120.2731619461229,3.9667746405154465
22.903651340114504,120.27316229763366,3.910869452267885
22.903643991896335,120.27316264883987,3.855004989147186
22.903636507267247,120.27316299992427,3.799183088377118
22.903628886911868,120.27316335070411,3.743405587181449
22.903621127578237,120.27316370111849,3.687676772415638
22.903613232004847,120.27316405147197,3.631992663428187
22.90360519659743,120.27316440121633,3.5763581594824787
22.903597022040607,120.27316475077798,3.52077264817059
22.903588707136294,120.27316509991326,3.4652364356964824
22.9035802522268,120.27316544856126,3.409754727527499
22.90357165542941,120.27316579702652,3.354326911255717
22.90356291640182,120.27316614463906,3.2989539054930206
22.903554035657493,120.27316649176431,3.2436375474631784
22.9035450106291,120.2731668384632,3.1883781433701515
22.90353584217241,120.27316718443116,3.1331815110892056
22.90352652960281,120.27316753009457,3.078043669968843
22.9035170713799,120.27316787490525,3.022971356496215
22.90350746699021,120.27316821904591,2.9679618148356672
22.903497716776048,120.2731685625775,2.913018719434738
22.90348781919702,120.27316890531723,2.858142682701349
22.90347777391082,120.27316924720424,2.8033376852869987
22.90346758040397,120.27316958842123,2.7486046458035704
22.903457237649544,120.27316992872458,2.693945095270872
22.903446745134072,120.27317026829701,2.639359952300787
22.903436102515247,120.27317060689488,2.584854116156697
22.903425309450757,120.27317094476184,2.530425749614835
22.903414364229043,120.2731712814106,2.4760786802247163
22.903403267192424,120.27317161720661,2.4218164293318987
22.903392017485114,120.27317195190625,2.367636853508651
22.903380614251343,120.27317228563135,2.3135469954460857
22.903369057148794,120.27317261832096,2.259545324124396
22.90335734532169,120.2731729499142,2.205636738806963
22.903345478085416,120.27317328028924,2.15182185190171
22.903333455439967,120.27317360944609,2.0981026537343856
22.903321276358408,120.27317393756746,2.0444820532426236
22.903308940327275,120.27317426434882,1.9909631124660372
22.903296446490792,120.27317458972925,1.9375479748323559
22.903283794848956,120.27317491383059,1.884238477565348
22.903270984203683,120.27317523671371,1.8310372233986854
22.9032580140415,120.27317555831773,1.7779474274739622
22.903244884362415,120.2731758782772,1.7249716925248502
22.903231594225065,120.27317619689663,1.6721124681830406
22.90321814303041,120.27317651393241,1.6193699075505137
22.90320453017941,120.27317682938455,1.5667522781342267
22.903190754730698,120.27317714355758,1.5142571303024888
22.903176817540064,120.27317745584239,1.461890128828585
22.903162716639212,120.27317776666537,1.409653570242226
22.903148451942567,120.27317807566105,1.357549751073122
22.903134023278973,120.27317838270761,1.3055820395648479
22.903119429792653,120.27317868817053,1.2537550287768244
22.90310467097014,120.27317899174524,1.202069943524897
22.903089746297972,120.27317929349265,1.1505293865427375
22.903074655690563,120.27317959323004,1.0991377977877854
22.903059397864254,120.2731798910183,1.0478983924016356
22.90304397324693,120.27318018685746,0.9968133138120174
22.90302838115397,120.27318048068659,0.9458868488743901
22.903012620644017,120.27318077220114,0.8951225189343094
22.90299669111803,120.27318106158386,0.8445224674195051
22.90298059317505,120.27318134871291,0.7940918997973203
22.90296432587373,120.2731816335883,0.7438337250053882
22.902947888529436,120.27318191596636,0.6937500864714383
22.902931280885443,120.2731821961517,0.6438467255197465
22.902914502685014,120.27318247359607,0.5941249435171485
22.902897553842575,120.27318274872587,0.5445892569720745
22.902880433331188,120.27318302099292,0.49524594306573266
22.902863141493167,120.27318329076266,0.44609354732930656
22.902845677130426,120.27318355779146,0.3971408731266856
22.90282804075643,120.27318382183566,0.34838922182470555
22.902792197033754,120.27317897377684,2.591389733508229
22.902782025178073,120.27317781691599,4.735568887636065
22.902765014377348,120.27318366828193,6.412728515714407
22.902721972197547,120.27318866904176,9.028174551039934
22.90268380692196,120.27319364318399,11.519171335160731
22.902643130538763,120.27320027973883,13.773775599062441
22.902606802103772,120.27320685879478,15.39994522488117
22.902567248072632,120.27321051265503,17.139853699743746
22.902534942048124,120.27321112522543,18.993906437695024
22.90251795811881,120.27321526618178,19.18799933028221
22.902485017064688,120.27321828456954,19.7384291216135
22.902474781795902,120.27321460987811,20.601740570306777
22.9024925657915,120.2732114539559,20.253885521292684
22.902504708802045,120.27320443104986,20.165233350396154
22.90252974542548,120.2731869384101,20.296501763820647
22.90255953751831,120.27316223148556,20.407837524175644
22.902588062632713,120.27313333700862,20.482474127352237
22.902616261952662,120.27310132059718,20.54702559685707
22.902645957941697,120.27306804651907,20.395454635977742
22.902667216051203,120.27303688211465,20.294948697328564
22.902676181517492,120.273012363097,20.231002286851403
22.90266792822915,120.27299828335812,19.95168670773506
22.90264289340285,120.27298845677156,19.723213234364984
22.902613640620928,120.2729731827732,19.54737867158651
22.902582177109267,120.27294783410244,19.86026522821188
22.902557506844133,120.27291935244203,20.05337826812267
22.902530207802005,120.27289699456686,20.146285449266433
22.90250531413618,120.27288320162204,20.048637005984784
22.902485819398784,120.2728755809467,20.008243804216384
22.90247979070378,120.27287171195285,20.00781266903877
22.902488905845534,120.27287125966673,19.940379207849503
22.90250927510185,120.27287039106177,19.889745320796965
22.90253909958586,120.27286405430522,19.85419259124994
22.902573285239832,120.27284929363988,20.15318851137161
22.90261434013337,120.27282916693831,20.364456996560094
22.902652458683512,120.27280802343812,20.505770124733445
22.902688630682395,120.27278753601317,20.311807062625885
22.902716090696252,120.27277073243135,20.204339270710943
22.90273956869232,120.27276164353924,20.160711330294607
22.902757263088027,120.27276515835753,19.877176260590552
22.90276477886741,120.27278028128423,19.644363264679907
22.902769918324125,120.2728039967791,19.4570656504035
22.902771449652196,120.27283518435974,19.794562431812285
22.902780097453913,120.2728735468317,20.011537334024904
22.90278657021181,120.27291832075095,20.135710389256477
22.90279430943467,120.27296588157004,20.170596818983554
22.90280280559264,120.27301388919336,20.23795801603794
22.902812421107434,120.27306109777078,20.319808784544467
22.902822881445676,120.27310658071116,20.163197706460952
22.902829541961133,120.27314565224997,20.061958103120325
22.902837186363858,120.27317268721,20.01284788697958
22.90284790934018,120.27318763893433,19.331111712932586
22.90284663286262,120.27319417212514,18.77317992454767
22.90284653179531,120.27319799750755,18.310151767134666
22.90284310201067,120.27320334721993,18.57233829665184
22.902850342486467,120.27321156286271,18.662347563505172
22.90285361001571,120.27322154617033,18.624185976207254
22.90285466630175,120.27323011496844,18.596783171296117
22.902856068578586,120.2732374031369,18.588110250294207
22.902857813765426,120.27324453044243,18.580833619356156
22.902859542179026,120.27325166633625,18.571866742551325
22.902861206494904,120.27325855615426,18.562602235496044
22.902862817923737,120.273265089406,18.553492055237292
22.902864371074127,120.27327129063812,18.544242245972157
22.9028658266659,120.27327718835645,18.534998560786246
22.902867186496177,120.27328278658103,18.52575732523203
22.90286845296114,120.27328808981919,18.516506291151046
22.902869628114658,120.27329310245645,18.507257706701754
22.902870713582704,120.27329782833012,18.497994424462316
22.90287171201819,120.27330227292208,18.488723793327807
22.902872624448047,120.27330643933875,18.479445813298224
22.90287345343961,120.27331033233109,18.47015436029434
22.902874201217895,120.27331395634552,18.460849434316156
22.902874869408883,120.27331731570665,18.45152981054783
22.90287546057991,120.27332041467814,18.44219058972597
22.90287597541559,120.2733232575237,18.4328403455615
22.902876416911145,120.27332584838521,18.423471729159353
22.90287678626467,120.27332819152635,18.414084740519524
22.90287708672811,120.27333029175898,18.404667131483553
22.902877319157252,120.27333215292045,18.395236049473283
22.90287748577711,120.27333377951807,18.385784145593643
22.9028775884704,120.27333517545007,18.376297946870327
22.902877629462136,120.27333634552835,18.36679582554102
22.90287761046388,120.27333729328566,18.357267983078955
22.902877533272758,120.27333802402117,18.34771931874752
22.90287740028495,120.27333854132854,18.338135134756563
22.902877212612967,120.27333884953241,18.32853380334377
22.902876973080875,120.27333895307915,18.318904301166533
22.902876682715604,120.27333885617158,18.30925152748823
22.90287634408449,120.27333856325609,18.299571807861327
22.90287595949813,120.27333807835275,18.289860243022442
22.9028755298123,120.27333740578617,18.28012785631418
22.902875057423177,120.27333655006363,18.270364849209784
22.90287454404232,120.27333551520523,18.260572446525096
22.902873992237055,120.27333430571828,18.250761671602724
22.902873403205476,120.27333292550102,18.240922725915908
22.90287277925818,120.27333137942622,18.23105928391218
22.902872121935562,120.2733296712703,18.221165221512315
22.902871433205917,120.27332780560151,18.211254011690617
22.902870715807726,120.27332578674444,18.20132197999954
22.902869969997727,120.27332361871913,18.191355653464793
22.90286919911345,120.27332130609383,18.181373404324052
22.902868404352986,120.27331885331498,18.171364209234714
22.902867587684618,120.27331626421986,18.161340316355226
22.90286675133337,120.27331354337672,18.151290702342987
22.90286589692522,120.27331069535381,18.141221491277218
22.902865026086147,120.27330772411028,18.131136357605456
22.902864141383475,120.27330463403163,18.12102795243263
22.902863243929723,120.27330142956426,18.110903624653815
22.902862336035486,120.27329811509371,18.100763374269007
22.902861419497896,120.27329469464,18.090613325357435
22.902860496285246,120.27329117289322,18.0804400049448
22.902859568365816,120.27328755417795,18.070258110821246
22.90285863736559,120.27328384281878,18.060062743723392
22.902857705081697,120.27328004295761,18.0498502292037
22.90285677373916,120.27327615897994,18.03963159060478
22.90285584445049,120.27327219581944,18.02941050237417
22.90285491986859,120.27326815700891,18.019169817090035
22.90285400144829,120.27326404760387,18.00893035662174
22.902853091243454,120.27325987168527,17.998678647994993
22.90285219088006,120.27325563351678,17.988423264920712
22.902851302326393,120.27325133797123,17.97815930813551
22.902850427294005,120.27324698870318,17.967895351350307
22.902849567665616,120.27324259088998,17.957627720117568
22.902848725409502,120.27323814830804,17.947364988148212
22.902847901980493,120.27323366589106,17.937093682467935
22.90284709934688,120.2732291477809,17.92682850086689
22.902846319562517,120.27322459824124,17.916568218529225
22.902845563996657,120.2732200220231,17.906311610639094
22.902844834446427,120.27321542326828,17.89604765385389
22.90284413365032,120.27321080660599,17.885793495595454
22.90284346169391,120.2732061764826,17.875541786968707
22.902842821315687,120.2732015369791,17.86530355131626
22.902842214483936,120.27319689272464,17.855067765295505
22.90284164231117,120.27319224840926,17.844849126696584
22.902841106765678,120.27318760799211,17.834631712913513
22.90284060955901,120.27318297634599,17.824421648025513
22.902840152402728,120.27317835767367,17.814223831295966
22.902839737179537,120.27317375648246,17.80403703790903
22.902839365686567,120.27316917685336,17.793858818233012
22.902839038694026,120.27316462390276,17.78369774597883
22.902831609433736,120.27315685521648,18.946980068206784
22.902841192856883,120.27314721117673,19.862147770166395
22.90284434331578,120.27313571042195,20.56256606030464
22.902850007877504,120.27311950322374,20.244862302958964
22.90284091781003,120.27309748939788,20.18067827820778
22.902837549555784,120.27307222009266,20.291375909507273
22.902837099673608,120.27305016192443,20.19982704913616
22.902832916976017,120.27303051267997,20.12511695700884
22.902829835920667,120.27301016172355,20.08611637085676
22.90282810870515,120.27298910354283,20.064544914186
22.902826906594647,120.27296851628664,20.03771287345886
22.90282550132259,120.27294921267514,20.008340564668178
22.902823588574535,120.2729311924647,20.032812385261057
22.902822626766323,120.2729137274171,20.047489353537557
22.902821755413783,120.27289591256424,20.054574913203716
22.90282135422534,120.2728770711367,20.021551428377627
22.90282026165434,120.27285710695786,19.999545162081716
22.902818667084322,120.27283610382442,19.9849539309144
22.9028159711288,120.27281431058358,19.99225383335352
22.90281340927359,120.2727925892164,19.99059420788288
22.902812102330355,120.27277190406284,19.982347522795198
22.90281290744573,120.27275312502222,19.983996124923227
22.902813258827926,120.27273851632695,19.989101157367227
22.902808468956277,120.27273102657735,19.997913707375524
22.902795734304032,120.27273211215842,19.948763072311877
