Latitude,Longitude,Altitude (m)
22.901817307812944,120.27404163384266,19.98755003853142
22.9018250875457,120.27404568276927,19.987654899440706
22.901832967076658,120.27404969236882,19.987758216485382
22.90184094537697,120.27405366352177,19.987860639713706
22.901849022446637,120.27405759652159,19.987961112797258
22.901857198079888,120.27406149078132,19.98806032641232
22.901865471247874,120.27406534600748,19.988158321186898
22.901873840510213,120.27406916366748,19.988254812724886
22.901882308130364,120.27407294346784,19.988350004166364
22.901890871021788,120.2740766848216,19.9884435704872
22.90189953000756,120.2740803886092,19.98853599922359
22.901908284058837,120.2740840542437,19.9886269653514
22.90191713255831,120.27408768231204,19.988716672010717
22.901926075505976,120.27409127310771,19.988804875433445
22.90193511207876,120.27409482604375,19.98889173813164
22.90194424165935,120.27409834170712,19.98897730073333
22.90195346404198,120.27410182039132,19.989061441354455
22.901962778197802,120.27410526150936,19.98914424125105
22.901972184332582,120.27410866594171,19.989225659795103
22.901981682034787,120.27411203280792,19.989305981382728
22.901991270481332,120.27411536328191,19.98938455596566
22.902000948437607,120.2741186570702,19.98946215547621
22.902010716520913,120.27412191387933,19.989538414262235
22.902020574113948,120.27412513429624,19.989613169811665
22.902030520599403,120.27412831861443,19.9896866658926
22.90204055391958,120.27413146654041,19.989758618108926
22.902050675720634,120.27413457807418,19.989829676508904
22.902060884767955,120.27413765380273,19.98989931292832
22.902071181267306,120.27414069284558,19.989967405483124
22.902081562749455,120.27414369667015,19.990034197941423
22.90209203003748,120.27414666380903,19.990100015327332
22.90210258313138,120.27414959661012,19.99016437010467
22.90211322059077,120.27415249301897,19.99022734352946
22.90212394200411,120.27415535420958,19.990289016857744
22.902134747371402,120.27415818018191,19.99034963385761
22.902145636281105,120.27416097034902,19.990408463224767
22.902156606881295,120.27416372617832,19.990466520659623
22.902167660406587,120.27416644590888,19.990523115485907
22.902178795416596,120.27416913130163,19.99057857272774
22.902190011499783,120.2741717820631,19.990632567360997
22.90220130906769,120.27417439789978,19.99068538378179
22.902212686268385,120.27417697969216,19.990736696965993
22.902224142896102,120.27417952567927,19.990787197589874
22.902235678745072,120.27418203791557,19.990836154349147
22.902247293197984,120.27418451610752,19.990883973523975
22.902258986872152,120.27418695996168,19.99093057385832
22.902270757709875,120.27418936918454,19.990975955352187
22.902282605505384,120.27419174524353,19.99101983360946
22.902294529847147,120.27419408637775,19.991062777422368
22.902306530323617,120.27419639493506,19.99110442113876
22.9023186069348,120.27419866944805,19.991145008526743
22.902330758446073,120.27420091021021,19.991184133306145
22.9023429844459,120.27420311722153,19.991221876733004
22.902355285757363,120.27420529106898,19.991258726343514
22.90236765991122,120.27420743175256,19.991294478997588
22.90238010690748,120.27420953956576,19.991328809671103
22.902392626334596,120.2742116142151,19.991361962132157
22.90240521860411,120.27421365570056,19.991393936380742
22.902417882069866,120.27421566460914,19.99142461053282
22.902430617966484,120.27421764035384,19.991454350240527
22.902443423824728,120.27421958381514,19.991482789851723
22.902456299233055,120.27422149469955,19.99151021376252
22.902469244603008,120.27422337300705,19.99153617506474
22.902482258699973,120.27422521932462,19.991561201922593
22.902495342758563,120.2742270330653,19.991584928683935
22.902508493898,120.27422881510955,19.991607355348766
22.902521712941375,120.2742305648704,19.99162880694121
22.902534999477137,120.27423228322827,19.991649364717304
22.902548352682214,120.27423396930274,19.991668500512837
22.902561771733527,120.27423562397425,19.99168653935194
22.90257525621954,120.27423724665584,19.991703521862625
22.902588806551783,120.27423883793449,19.991719244904814
22.902602421084108,120.27424039810366,19.991734074130655
22.902616098993438,120.27424192686988,19.991747522003948
22.902629841514383,120.2742434251136,19.991760035432875
22.902643646589254,120.27424489166087,19.991771330021322
22.902657515864203,120.27424632709868,19.991781649537383
22.90267144604692,120.274247732014,19.99179091272503
22.902685436725868,120.27424910640683,19.991798997700215
22.902699489547203,120.27425044969017,19.991805904462932
22.902713602864765,120.27425176245103,19.99181179552525
22.902727776678553,120.27425304468939,19.99181667088717
22.90274200893088,120.2742542972857,19.99182053054869
22.90275630209097,120.27425551906603,19.991823211997747
22.902770652454983,120.27425671120433,19.991824877746403
22.902785061669064,120.27425787252665,19.99182540591061
22.902799528087066,120.27425900479388,19.991824959002436
22.902814051708983,120.27426010683212,19.991823455765843
22.90282863212328,120.27426117981527,19.991821058712897
22.902843268506878,120.27426222256942,19.991817645959557
22.902857960036698,120.27426323597503,19.99181305499375
22.9028727063012,120.27426421973858,19.99180752958357
22.902887507711927,120.27426517444707,19.991800704076887
22.902902363034258,120.27426610039396,19.991793106637896
22.902917271033576,120.27426699669883,19.991784696638582
22.90293223376758,120.2742678642421,19.991775149054824
22.90294724876703,120.27426870243683,19.9917644232586
22.90296231397424,120.27426951245694,19.991752763018013
22.902977432269974,120.27427029400896,19.99174049335718
22.902992601596544,120.27427104679938,19.991726964227855
22.903007821130867,120.27427177082822,19.991712378770114
22.903023089638328,120.27427246638898,19.99169698075205
22.90303840876508,120.2742731340686,19.99168064828962
22.903053776453433,120.2742737738671,19.99166321887076
22.903069192291845,120.27427438519749,19.99164501751959
22.90308465751494,120.27427496864675,19.991625719211996
22.90310016883039,120.27427552480187,19.991605770856143
22.903115726238212,120.27427605248889,19.991584644287823
22.903131331384554,120.27427655288174,19.991562705159186
22.90314698221172,120.27427702598044,19.99153995347023
22.903162678719713,120.27427747119802,19.99151602356881
22.903178418850835,120.27427788941492,19.991491524875162
22.903194205074325,120.27427828033767,19.991465969853103
22.903210034509407,120.27427864455323,19.991439480386674
22.90322590674454,120.27427898147465,19.991412218987943
22.90324182177973,120.27427929110189,19.991384063772855
22.90325778002651,120.27427957372848,19.99135481160134
22.90327377901565,120.27427983052833,19.991325112521647
22.903289819981765,120.27428006032751,19.991294519625605
22.903305902513313,120.27428026429997,19.991262951657177
22.903322024141065,120.27428044127176,19.991230571128426
22.903338186511178,120.27428059182985,19.99119717489928
22.903354386331337,120.27428071685469,19.991163250505924
22.903370626482314,120.27428081517235,19.991128351040185
22.903386905317955,120.27428088766328,19.99109267964214
22.903403221192104,120.27428093462096,19.991056398823858
22.90341957328168,120.27428095545844,19.991019102305174
22.903435963232845,120.27428095105616,19.990980911970137
22.903452389810976,120.27428092053366,19.990942071586847
22.90346885178146,120.2742808650649,19.9909025811553
22.90348534790968,120.2742807837694,19.99086231879145
22.903501879018712,120.27428067782111,19.990821243867277
22.903518445108556,120.2742805460461,19.990779437638817
22.90353504370998,120.27428039020528,19.99073690010607
22.903551676469135,120.27428020853772,19.990693590641023
22.903568340916795,120.27428000251086,19.9906495904997
22.903585037876034,120.27427977153773,19.99060473717004
22.90360176652377,120.27427951561835,19.99055931504816
22.903618525625394,120.2742792362201,19.990513324134053
22.903635315592442,120.2742789315821,19.990466398775578
22.903652135190292,120.2742786025848,19.990418782740832
22.903668984830492,120.27427824952169,19.99037071979791
22.903685864101494,120.27427787268624,19.990321681782603
22.903702771357146,120.27427747119802,19.990272074975074
22.903719706185914,120.27427704652443,19.99022218377143
22.90373666776471,120.27427659807852,19.990171520635485
22.903753658151235,120.2742761252733,19.990119923055172
22.903770673230103,120.27427562928273,19.990067919194697
22.903787715059,120.27427510951982,19.990015021517873
22.903804781991774,120.27427456686505,19.989962001957
22.903821874851506,120.27427400043793,19.989907966695725
22.903838990757418,120.27427341111895,19.98985352515429
22.90385613176721,120.27427279861462,19.9897984335646
22.903873293765486,120.2742721632184,19.98974265129864
22.903890479633024,120.27427150493033,19.989686503380536
22.903907687723667,120.27427082345689,19.98962986792624
22.903924919272033,120.27427011967853,19.98957241991162
22.90394217016273,120.27426939359529,19.989514484360814
22.903959442453452,120.27426864462018,19.98945618315786
22.90397673408651,120.27426787363365,19.98939723190665
22.90399404670805,120.27426708004872,19.989337833747268
22.904011377437307,120.27426626445238,19.989277988679707
22.904028728743512,120.27426542684464,19.98921741230786
22.904046094453584,120.27426456751896,19.989156348399817
22.904063480740604,120.27426368588837,19.989094918839633
22.904080884723797,120.27426278283333,19.989033042371272
22.904098303110857,120.27426185776689,19.988970718994736
22.90411573837101,120.27426091186297,19.988908029966055
22.90413318926965,120.27425994365414,19.98884477214515
22.90415065498369,120.27425895431436,19.988781026788054
22.904168134690057,120.27425794413712,19.98871675326675
22.904185629211824,120.27425691253542,19.988652479745447
22.904203136079765,120.27425585980275,19.988587474919854
22.904220656940026,120.27425478711308,19.98852210444212
22.904238190969537,120.27425369241199,19.988456571452318
22.90425573652214,120.2742525771669,19.988390266530214
22.904273291540136,120.27425144167132,19.98832375846803
22.904290859315843,120.27425028563175,19.9882571285218
22.904308436145406,120.27424910904818,19.988189929783342
22.904326022851905,120.27424791192064,19.98812240602076
22.904343620258416,120.27424669483608,19.98805435409397
22.90436122507263,120.27424545750101,19.98798605839908
22.90437883935224,120.27424420020893,19.987917884588242
22.904396459393396,120.27424292295981,19.987849060729147
22.904414087253794,120.27424162634067,19.987780074357985
22.904431722110353,120.27424030976451,19.987710600450633
22.904449363963074,120.27423897293784,19.987640882775185
22.904467010342724,120.2742376173281,19.98757116509974
22.90448466248392,120.27423624205481,19.987500797376036
22.904502318740505,120.27423484741149,19.987430510908364
22.904519977877865,120.2742334339851,19.987359899416564
22.904537642365227,120.27423200118865,19.987289166040718
22.90455530932183,120.27423054960914,19.98721802638471
22.904572979159198,120.27422907895306,19.987146805472673
22.90459065023119,120.27422758922042,19.987075381420553
22.904608322537793,120.27422608129167,19.987003632344305
22.904625996079016,120.27422455428638,19.98693196452409
22.904643671266392,120.27422300937845,19.98686013419181
22.904661344396075,120.27422144568746,19.9867879788354
22.904679017937298,120.27421986350687,19.98671578285098
22.904696690655445,120.27421826371715,19.98664354623854
22.904714359258197,120.27421664543783,19.986570903345942
22.904732027860952,120.27421500896243,19.986498219825325
22.904749692759857,120.27421335487789,19.986425698816777
22.904767354777988,120.2742116831842,19.986352649644015
22.90478501268073,120.2742099935879,19.98627980361134
22.904802666056543,120.27420828638247,19.986206998206676
22.904820315728504,120.27420656244837,19.98613398966193
22.904837958404304,120.27420482002468,19.986061021745204
22.904855596141637,120.27420306116579,19.985988297596574
22.904873227294342,120.27420128469777,19.98591500465572
22.904890850216272,120.2741994909141,19.985841630458832
22.904908467788193,120.27419768069524,19.985768662542103
22.904926075894718,120.27419585345423,19.985695613369344
22.904943674947386,120.27419400889755,19.985622482940553
22.904961266180816,120.27419214849267,19.98554967753589
22.90497884671423,120.27419027106562,19.9854765471071
22.904996418605325,120.27418837749687,19.985403985470533
22.90501397897333,120.27418646719944,19.985330814413725
22.90503152822978,120.27418454046682,19.985258009009062
22.905049065551605,120.27418259817948,19.985185366116465
22.90506658970418,120.27418063945693,19.985112804479897
22.905084102745203,120.27417866517965,19.98504040535539
22.90510160138236,120.27417667505415,19.984967884346844
22.905119086850274,120.27417466819998,19.98489576961845
22.905136558325857,120.27417264608455,19.98482337049395
22.905154013751424,120.27417060870789,19.984751702673734
22.90517145353851,120.27416855577648,19.98467970982939
22.905188878098652,120.27416648758383,19.984608204521237
22.905206286608777,120.27416440412992,19.98453706486523
22.905223676599647,120.2741623048278,19.984465640813113
22.905241050952036,120.27416019114489,19.984394704297184
22.90525840719671,120.27415806308119,19.984324092805384
22.90527574162982,120.27415591916926,19.984253400057554
22.905293061247523,120.27415376087654,19.98418295107782
22.905310358642122,120.27415158820304,19.98411315214634
22.90532763669439,120.27414940056177,19.984043515726924
22.905344892935094,120.27414719853971,19.983973716795443
22.905362129421928,120.27414498184336,19.983904730424285
22.905379344097195,120.27414275105971,19.983835703425108
22.90539653531474,120.27414050648225,19.98376720459014
22.90541370472072,120.27413824781748,19.98369882763922
22.90543084943436,120.27413597477191,19.983631060108543
22.905447971101818,120.274133688226,19.983563576973975
22.905465068900018,120.27413138729932,19.98349625635147
22.90548214077126,120.27412907316577,19.983429342009128
22.905499187127088,120.2741267455319,19.983362915202974
22.90551620755596,120.27412440439768,19.983297179073094
22.90553320329249,120.2741220503501,19.983231158547103
22.90555016898668,120.27411968221523,19.983166234977542
22.905567109988528,120.27411730116698,19.98310143329203
22.905584020536494,120.27411490720537,19.98303699725866
22.905600903511345,120.2741125000369,19.982973089389503
22.905617757678474,120.27411008024856,19.9829098315686
22.90563458221479,120.27410764784035,19.982847061283884
22.90565137506261,120.27410520222529,19.982784412883223
22.905668137456544,120.27410274428382,19.982722414530812
22.90568486816198,120.27410027430945,19.98266126936674
22.90570156841353,120.27409779142172,19.98260048985481
22.90571823656504,120.27409529650109,19.982540035367013
22.905734870970353,120.27409278925406,19.98248027155548
22.905751471629472,120.27409027026759,19.982420914024114
22.905768037719316,120.27408773895475,19.98236253156513
22.90578457170912,120.27408519531551,19.98230439287424
22.905801068660416,120.27408264140428,19.982247026115655
22.905817529396284,120.27408007457967,19.982189984381197
22.905833955562876,120.27407749689611,19.98213395834714
22.90585034551404,120.27407490717964,19.98207870424539
22.905866695957464,120.27407230572375,19.982023531399665
22.905883011008534,120.27406969428934,19.98196953676641
22.905899288198018,120.27406707052855,19.981915623389185
22.905915525056685,120.27406443590878,19.981862766340374
22.905931722407608,120.27406179072355,19.981810437455774
22.905947881896946,120.27405913467935,19.981759083643556
22.90596399940931,120.2740564671892,19.981708379879592
22.905980075767776,120.27405378913359,19.981658448047934
22.90599611179542,120.27405110080596,19.981609044380484
22.90601210584609,120.27404840191288,19.981560372017324
22.90602805709671,120.27404569274778,19.981512674726545
22.906043964724198,120.27404297272373,19.98146574936807
22.90605983037471,120.27404024330814,19.98141979908198
22.906075649109777,120.27403750332707,19.981374133192002
22.906091428337103,120.27403475336749,19.981329726770518
22.906107157356676,120.27403199401637,19.98128621416539
22.90612284439927,120.27402922409976,19.981243067212404
22.90613848288027,120.27402644537861,19.981201464124023
22.9061540752689,120.27402365638545,19.98115990166366
22.906169619095937,120.27402085741379,19.981120004951954
22.906185116007528,120.27401804963755,19.98108067703247
22.906200566826755,120.27401523246978,19.981042161673308
22.906215966615147,120.27401240591047,19.981004702642558
22.90623131701886,120.2740095705466,19.980968218684197
22.906246617214823,120.27400672637815,19.980932222262023
22.906261869672264,120.27400387311167,19.98089768844843
22.906277068629638,120.27400101074711,19.980863764055073
22.906292216556178,120.273998139578,19.980831302270293
22.90630731262881,120.27399526048478,19.980799612417815
22.90632235684753,120.2739923722935,19.980768653869628
22.90633734592003,120.27398947588465,19.980739157930017
22.906352283138613,120.27398657125818,19.980710149526594
22.906367166857134,120.27398365812063,19.980682766243813
22.906381993783278,120.27398073617853,19.98065615489334
22.906396766386273,120.27397780719276,19.98063068112731
22.906411484666126,120.2739748699894,19.980605979293586
22.906426145330524,120.27397192515542,19.980582577556373
22.906440748379463,120.27396897210383,19.980560597799716
22.906455295459104,120.2739660120086,19.9805394712314
22.906469780807896,120.27396304398926,19.980519360363484
22.906484211833547,120.27396006863277,19.98050042770803
22.90649858524374,120.27395708593916,19.980482917033136
22.906512896923086,120.27395409590841,19.980466097034512
22.906527150163896,120.27395109824703,19.98045102404058
22.90654133920463,120.27394809412895,19.980436641722918
22.90655546898375,120.27394508296724,19.98042380326986
22.906569537855102,120.27394206476187,19.980412021145224
22.906583546641766,120.27393904009982,19.980401457861067
22.906597492051425,120.27393600839412,19.980392357185483
22.906611369968694,120.27393297023173,19.980383825302123
22.906625186978196,120.27392992561265,19.98037724356353
22.906638940610694,120.27392687483038,19.980371840037407
22.906652628396955,120.27392381729796,19.980367574095727
22.906666249513904,120.27392075360233,19.98036440511048
22.90667980807693,120.27391768433047,19.980363186269997
22.90669329667833,120.27391460889541,19.980362617477773
22.90670672190273,120.27391152759066,19.980364120714366
22.906720078811656,120.2739084401227,19.980366355255246
22.90673336493588,120.273905347372,19.980369727380573
22.906746584390792,120.27390224875158,19.980374968394635
22.90675973635331,120.27389914455495,19.980381793901323
22.906772817531127,120.27389603507557,19.980389269456268
22.90678582792424,120.27389292031346,19.98039857327193
22.906798768355724,120.27388980056209,19.980409664720295
22.90681163800251,120.2738866752345,19.98042169061303
22.906824434395354,120.27388354491764,19.980435138486325
22.90683715918042,120.27388040990502,19.980450048968194
22.906849811534624,120.27387726990315,19.980466300174594
22.90686239228105,120.27387412520551,19.980484704665837
22.906874898127377,120.27387097610558,19.980504165485502
22.906887328250537,120.27386782230988,19.980525129541753
22.90689968511976,120.27386466381843,19.980547718718647
22.906911964619656,120.27386150151165,19.980571892388163
22.90692417086561,120.2738583348026,19.98059740678221
22.90693629727301,120.27385516339777,19.980624546296895
22.906948351249547,120.27385198817763,19.98065331093222
22.906960323741366,120.27384880943566,19.98068321315199
22.906972221333096,120.2738456265849,19.98071526865661
22.90698403908626,120.27384243991882,19.98074854300171
22.90699577617779,120.27383924973093,19.980783889375626
22.90700743589999,120.27383605514073,19.980820332705974
22.90701901084516,120.27383285790918,19.980858279272912
22.907030510067163,120.2738296571558,19.980898582264782
22.90704192698137,120.27382645346756,19.980940266609192
22.907053259941627,120.27382324537705,19.980983372934162
22.90706451306332,120.2738200358191,19.981028591915965
22.907075683054142,120.27381682215236,19.981074867226184
