Latitude,Longitude,Altitude (m)
-10.92572770856225,15.593303951048007,11583.794064617157
-10.914697901370598,15.591817774606897,11583.991843242646
-10.9036618426351,15.59033809193056,11584.189621868134
-10.892617448507808,15.588859304945913,11584.391520881654
-10.881565760912697,15.587381413652961,11584.592046432495
-10.870510947545663,15.585899267824468,11584.795318908693
-10.859446756862859,15.584411747845818,11585.00271177292
-10.848377356560185,15.582914151335627,11585.210104637146
-10.837305872409562,15.581406254370968,11585.421617889406
-10.826230220563042,15.579883130647534,11585.633131141663
-10.815150401020624,15.578342764859016,11585.847391319276
-10.804069539554233,15.576782246007411,11586.063024959565
-10.792982426543995,15.575199558786414,11586.282778987887
-10.781898439305682,15.573591568275097,11586.503906478883
-10.770811326295444,15.57195469170669,11586.727780895235
-10.75972212943726,15.570287585543655,11586.95440223694
-10.748636058350996,15.568585323481681,11587.181023578645
-10.737543735720887,15.566847457674921,11587.413138771059
-10.726459748482574,15.565070405356607,11587.64662742615
-10.715373677396311,15.563250359837044,11587.88423646927
-10.704289690157996,15.561385753655768,11588.12184551239
-10.69320778676763,15.559473899737704,11588.363574943543
-10.682131092997135,15.557511215316078,11588.609424762726
-10.67105648307459,15.555495013315813,11588.856648044588
-10.659983956999993,15.553423054507679,11589.106618251803
-10.648917682469241,15.551292651816594,11589.360708847047
-10.637856617558361,15.549100446398715,11589.617546367646
-10.626801804191325,15.54684375117896,11589.875757350923
-10.615749074672241,15.544520774773947,11590.13808872223
-10.604710932088794,15.542126814802286,11590.404540481568
-10.593674873353295,15.53966052772644,11590.673739166261
-10.58264610808562,15.537119450394254,11590.947058238984
-10.571628803981657,15.534499328270188,11591.221750774384
-10.56061462564962,15.531799041739625,11591.500563697817
-10.549616076177196,15.52901478411287,11591.783497009279
-10.538624820172592,15.526143868314849,11592.069177246094
-10.527645025331704,15.523184055116326,11592.357604408266
-10.516674607806586,15.520131761750532,11592.65289888382
-10.505716693369159,15.516985420757004,11592.948193359376
-10.494770240095448,15.51374122544605,11593.24898168564
-10.483839415681352,15.510413730807675,11594.000265769959
-10.472920052430974,15.506991516772796,11594.938340778352
-10.462015276116233,15.50346070012018,11595.918993129731
-10.451127170585083,15.499820833003975,11596.89140470505
-10.440249484293675,15.496072587192954,11597.843214340211
-10.429391594557778,15.492217306224656,11598.771675109865
-10.418556627149314,15.488256109713696,11599.672666625978
-10.407749791688158,15.484189893351768,11600.550309276581
-10.3969794235661,15.480017313601332,11601.404603061677
-10.386249690479037,15.47573859438531,11602.238294906618
-10.375490783520696,15.470784075787147,11588.803083000184
-10.364714163854792,15.46557450897949,11569.382320747376
-10.353945879580683,15.46042831235909,11548.373835639955
-10.343204685329905,15.455428561330445,11527.21976348877
-10.332527048441555,15.450536293304925,11506.274457664491
-10.32193276547115,15.445679405101266,11485.59560359955
-10.311440591050223,15.440796317915597,11465.179080905915
-10.301050525178773,15.435846053852975,11445.006347837449
-10.290764651704754,15.43080465316062,11425.057489185334
-10.280581928704185,15.42565980007776,11405.317396860124
-10.27049506270925,15.420407240068853,11385.774396429064
-10.260505095643921,15.415046749210974,11366.41612672806
-10.250607859812304,15.409576760043663,11347.228853130342
-10.240802313290423,15.403999735719076,11328.207768516542
-10.231085330306355,15.398316124083056,11309.337078065873
-10.221453785088176,15.392528164364837,11290.610601196291
-10.211907677635889,15.386637200101958,11272.019410400391
-10.202445966025516,15.380644126986112,11253.553891439438
-10.193071776028985,15.374549392863145,11235.210610656739
-10.183777814178471,15.36835546088521,11216.993001708986
-10.174564080473976,15.362063450666925,11198.81247625351
-10.16543265876345,15.355673586131214,11180.667660827638
-10.156385632894839,15.349188778276075,11162.558555431367
-10.14741466747635,15.342607683563973,11144.483099870682
-10.13852393020388,15.335933660838752,11126.439233951569
-10.129713421077428,15.329166934023336,11108.427644405367
-10.1209789724011,15.322308846655266,11090.446957769394
-10.112324751870789,15.315360294426233,11072.494427118303
-10.103746591790602,15.3083228447967,11054.56936572075
-10.095243450236561,15.30119672168959,11036.6710868454
-10.08682053682854,15.293984164334134,11018.79959049225
-10.07846430655487,15.286686516267872,11000.952129735948
-10.070188304427223,15.279304001413728,10983.128017845154
-10.061983153129823,15.271837739386314,10965.326568088532
-10.053850936510624,15.264289745491944,10947.547093734742
-10.04579061264565,15.256659795807689,10929.784100933077
-10.037808433078746,15.24895102525448,10912.043083534241
-10.02989189472222,15.24116276206354,10894.318547687531
-10.022048291043895,15.23329746938703,10876.609119930268
-10.014272412423898,15.225355371147872,10858.916860456467
-10.006563216938252,15.21733825872945,10841.238335609438
-9.998925914206833,15.209247027823457,10823.5721719265
-9.991355294609766,15.201083021967433,10805.917682676316
-9.983851358147053,15.192847136853068,10788.272807664873
-9.976412020970745,15.184540492094982,10770.638233623506
-9.969039366928792,15.176164655153633,10753.012587089539
-9.961735479869139,15.167720521720717,10735.392434406282
-9.954489940552046,15.159209435333771,10717.779149036409
-9.947311084369305,15.150631843838642,10700.169984054566
-9.940194743625023,15.141989762541641,10682.564939460755
-9.933140918319195,15.133284311057379,10664.960581598283
-9.926149608451825,15.124515713308783,10647.357597198488
-9.919216646327014,15.115685984602159,10629.75529953003
-9.912345157716684,15.106797140243819,10612.151628398897
-9.905532016848914,15.09784850846499,10594.545210342409
-9.898778265647678,15.088843000263674,10576.935358629227
-9.892080778341052,15.07977971994818,10559.321386528016
-9.88544268070096,15.070661578516509,10541.699860382081
-9.87885876310753,15.061489023814504,10524.074213848115
-9.872329025560761,15.052263175456785,10506.438266344072
-9.865859719604503,15.042985376980889,10488.791331138613
-9.859444593694905,15.033657419770202,10471.137528619767
-9.853079480136072,15.02427840813303,10453.469991474152
-9.846765420851979,15.014852372681993,10435.789406433107
-9.840510751234419,15.00537931341709,10418.095773496629
-9.8343029681957,14.995858782492473,10400.385659008027
-9.828142071735826,14.986293914829067,10382.660436429978
-9.822037439170561,14.976685606118567,10364.91667210579
-9.815980735108113,14.967034752052662,10347.154366035462
-9.809970917624508,14.957341352631353,10329.373518218996
-9.804004860947822,14.947608094929722,10311.571381731035
-9.798095068165747,14.937836994254072,10293.745896377564
-9.792226952342642,14.92802693098979,10275.8991223526
-9.786404681174405,14.918179920443185,10258.027625999452
-9.780626170813088,14.90829775399764,10240.13003385544
-9.77489142125869,14.898381103421928,10222.206345920564
-9.769196264815315,14.88843108833066,10204.255188732148
-9.763550078798731,14.87844905226138,10186.275188827516
-9.75794140204522,14.86843656267455,10168.265659475328
-9.752375444174655,14.858394067416013,10150.224540481568
-9.746849079415112,14.848322686100387,10132.151831846239
-9.741362307766591,14.838223986188133,10114.04616010666
-9.735915129229094,14.828099311216791,10095.906838531495
-9.73050337610672,14.817949556878052,10077.731806926728
-9.725133299943318,14.80777539494069,10059.519691829682
-9.71979343957517,14.797579064633931,10041.271866703035
-9.714493172318043,14.787361461649471,10022.982837696076
-9.709224162780146,14.77712258598731,10004.657411928178
-9.703990578657374,14.766866244337141,9986.288722085954
-9.698789294177804,14.75659064531558,9967.880201826096
-9.693619267417462,14.746298475997703,9949.427730760575
-9.688484666072245,14.735990184229356,9930.93199562073
-9.683379238598308,14.725668233162699,9912.390936212541
-9.678307152691549,14.715333070643572,9893.804552536012
-9.673255905264273,14.704985592363672,9875.170097665788
-9.668237999404177,14.69462758970638,9856.488945064546
-9.663246141643436,14.684259286594624,9837.757661075593
-9.658281373906025,14.673882922257635,9818.975558967591
-9.653344738115921,14.663498720618332,9800.14263874054
-9.648433108501198,14.653109368751798,9781.257526931764
-9.643542317365961,14.642713970966337,9762.318850078584
-9.638676532406107,14.632315886105799,9743.326608181002
-9.633830544001764,14.621915114170182,9724.279427776337
-9.629009561772804,14.611512326928258,9705.17456193924
-9.624210459947303,14.601110211455103,9686.012010669709
-9.619429070829366,14.590708767750716,9666.790400505068
-9.61466747826694,14.580310235044331,9647.510418176653
-9.609925682260023,14.569914613335948,9628.169316759111
-9.605199515112721,14.55952436577772,9608.767096252443
-9.600494186444905,14.549139268446726,9589.301696462633
-9.595801360864781,14.538761336649273,9569.771743927004
-9.591123122220296,14.528392809614594,9550.178612108231
-9.586458428587477,14.518033463419766,9530.518180618286
-9.581808321890296,14.507683969833556,9510.792509651184
-9.577169676356835,14.49734746377689,9490.996792087555
-9.572543533911062,14.487024393095615,9471.132401390078
-9.567929894552982,14.476715429558501,9451.199337558748
-9.5633204228908,14.466422588471854,9431.194166936875
-9.558725538164257,14.456146541604445,9411.116889524461
-9.554138988829507,14.445889080339661,9390.966818590165
-9.549559732962578,14.435651100369192,9370.741207208634
-9.544988812487444,14.42543394523058,9350.441428842545
-9.540417892012309,14.415238510615515,9330.065423297883
-9.53585322308102,14.405066587907381,9309.610443649293
-9.531293763769602,14.394919744566646,9289.077176628114
-9.526737430230106,14.38479842843915,9268.464935503007
-9.52218318053856,14.374703983062437,9247.771660079958
-9.517625805075092,14.364637975896967,9226.996663627626
-9.513075723079442,14.35460175048028,9206.139259414675
-9.508521473387896,14.344597322118682,9185.196700515748
-9.503966181772375,14.334624914735098,9164.170360393526
-9.499406722460957,14.324685424021222,9143.056118659973
-9.49484517930159,14.314781760975054,9121.855348777772
-9.490279468446326,14.304914261480977,9100.565303821564
-9.485705422199269,14.29508404515361,9079.186670522691
-9.481134501724133,14.285292679453413,9057.716015224458
-9.47654899431336,14.275542067725233,9036.155398120882
-9.471952025738867,14.265833105660766,9014.50001209259
-9.467355057164376,14.256166129144392,8992.750543870927
-9.462745585502192,14.246544608981424,8970.90630672455
-9.458124652676293,14.236968097326013,8948.965240459444
-9.45348809099078,14.227439057330315,8926.92665834427
-9.448846319685394,14.21795804880164,8904.787813453675
-9.444186835672445,14.208527310969215,8882.550765981676
-9.439513806647831,14.199147739524737,8860.212082271577
-9.434822022991682,14.189821461735974,8837.769702129364
-9.430118778171813,14.180548253680003,8815.224312286378
-9.425400946416307,14.171331026354826,8792.573165817263
-9.420654982713494,14.162170619471405,8769.816262722017
-9.415898599770939,14.15306843254801,8746.952916269303
-9.411122420272871,14.144026536871678,8723.97969280243
-9.4063181088275,14.135044988423143,8700.897965784074
-9.401495042750591,14.12612641829675,8677.703614826203
-9.396650096270223,14.117272673856617,8654.397326660157
-9.39178222746242,14.10848437089078,8630.976354360582
-9.386885184783337,14.099763076859704,8607.441384658814
-9.381978764788487,14.090188972375719,8563.132105236054
-9.376984823179797,14.080468254357783,8508.006807231905
-9.371852305682529,14.071146455027483,8448.927996912003
-9.366569751132966,14.062374162550656,8388.730501241685
-9.361152788390722,14.054086607221768,8328.333166751863
-9.355629549403101,14.046155593167306,8267.963988246918
-9.350017746877668,14.038467759407412,8207.646314592363
-9.34433926121788,14.030943053497051,8147.352676534653
-9.33859409242374,14.023531204739971,8087.05697828293
-9.332784324343196,14.01620338305981,8026.733124046326
-9.326909956976245,14.008941450699796,7966.363945541383
-9.320973074170839,14.001736506723727,7905.938455066682
-9.314973675926975,13.994580881771489,7845.449785308839
-9.308906552624785,13.98746830600123,7784.895876073838
-9.302781081580035,13.98039374114718,7724.278787555696
-9.296594137020803,13.973352036982108,7663.601266679765
-9.290348844719011,13.966337707394393,7602.868807296754
-9.284050414294533,13.959344706465108,7542.088963451387
-9.277697803823392,13.952367995928487,7481.269289188386
-9.271297264849434,13.945400578193176,7420.420772209169
-9.264855048916505,13.938436799205368,7359.539292125703
-9.258365946404734,13.931471508737829,7298.641330490113
-9.251841418477836,13.924496869488246,7237.741308660508
-9.245285632831711,13.917507339364272,7176.854334726335
-9.238700673314309,13.910495808813096,7115.996890239717
-9.232184480779205,13.902747627825407,7040.588295421601
-9.225656827080387,13.894798476014168,6957.0048507499705
-9.219089580270545,13.887059028020483,6870.276176548005
-9.212496285361347,13.879642588843476,6782.726171665193
-9.205938415867273,13.872500007401513,6695.206382961274
-9.199467026063065,13.865535332722011,6607.969527568818
-9.193122750983719,13.858670303743322,6521.057496099473
-9.186912884097051,13.851856441152579,6434.445566225053
-9.180865557350373,13.84507101677308,6348.093907527925
-9.174972435351885,13.838309160281243,6261.961316127778
-9.16923560194954,13.831578261133537,6176.005214681626
-9.163650889447437,13.824892818339233,6090.1850860404975
-9.158202668985965,13.818268506502957,6004.463159980774
-9.152890940565122,13.811722903574177,5918.8016662788405
-9.147705284945166,13.805274931039902,5833.166268367769
-9.142640492506226,13.798943510387138,5747.521256217957
-9.137684060160609,13.792748122910202,5661.833323359489
-9.132834945984344,13.78670578675126,5576.069850053787
-9.128075437269866,13.780837718607273,5490.19890329361
-9.123407617865123,13.775162448100144,5404.188206706047
-9.118814816986529,13.769698224948105,5318.004110455513
-9.11430120232998,13.764466153886667,5231.616398363114
-9.109846977339963,13.759484372672608,5144.9951976156235
-9.10544484854866,13.75477269848463,5058.112352228165
-9.101091690184148,13.75035100448216,4970.936272559166
-9.096778124930658,13.74623955568975,4883.437772526741
-9.092493733548448,13.742459232919984,4795.587666049004
-9.088226012949827,13.739029237563527,4707.354706850052
-9.08397392121082,13.735972017893422,4618.710395579338
-9.07971870369989,13.73330705520399,4529.622799229622
-9.075460360417036,13.73105769345997,4440.063418450356
-9.071238484473284,13.729496502839597,4355.472195539474
-9.06791162122343,13.728141545231466,4274.673789811134
-9.066322687162664,13.72703228705079,4204.115921802521
-9.066230997852928,13.72610468634154,4139.057398352623
-9.066349777185994,13.726111404029234,4081.2847510385513
-9.066337274098304,13.726871230488296,4027.0865403413773
-9.066190362817931,13.728471663600956,3981.7145441722873
-9.064945263668676,13.730866351322117,3940.238031520844
-9.06098907833836,13.733836576936568,3887.582562775612
-9.053250708981437,13.738012963376699,3825.708069176674
-9.041843725311098,13.743516540982485,3758.8104792022705
-9.027606876126635,13.750007170833625,3690.023691315651
-9.011552911531039,13.756980914391516,3621.2461743021013
-8.994579969990134,13.763976602395877,3553.5310306692127
-8.977384056718735,13.770647490200172,3487.4293623161316
-8.960448624440906,13.77677038263073,3423.1969766664506
-8.944082082653027,13.782216356064529,3360.9231487941743
-8.928474061518422,13.786927470445201,3300.5913971471787
-8.913724585738615,13.790886987534238,3242.1258379125597
-8.899888877284246,13.79410783888045,3185.410070128441
-8.886978397319032,13.79661807082997,3130.3050306987766
-8.874988978147075,13.798454014877079,3076.6551749753953
-8.863906032832734,13.79965737666622,3024.300151190758
-8.853848340709078,13.799964710878276,2968.2206399917604
-8.844730464010217,13.799660063741298,2909.6038281798365
-8.836529480408716,13.798983480628925,2849.9641300392154
-8.829305821495083,13.79805274499875,2790.154465892315
-8.823143883111232,13.796918239508486,2730.4900454235076
-8.817602931416051,13.796732607405174,2688.055199189186
-8.81297470512233,13.796738429401175,2658.145989203453
-8.8092946296452,13.796385246970598,2634.667159788609
-8.806353278265826,13.795596254550793,2613.736962053776
-8.803848493031674,13.79454790340522,2593.3650768971443
-8.801486451381997,13.793471281990596,2572.659268627167
-8.799051475054123,13.792554429581656,2551.2753131604195
-8.796385191603958,13.791918264556918,2529.118956620693
-8.793387576329975,13.791623973855136,2506.205822145939
-8.789991946097821,13.791695069383243,2482.5968571424487
-8.786171210884161,13.792122482262853,2458.3727525424956
-8.781898280665668,13.792884435989686,2433.6212382745744
-8.77716794582247,13.793951372737883,2408.433992972374
-8.771964577494952,13.795287408859004,2382.9037253665924
-8.76629234337901,13.796857388454113,2357.1252043819427
-8.760146033854776,13.798621509223613,2331.190452017784
-8.75352460699827,13.800542208097143,2305.19423719883
-8.746422853189628,13.802581474158496,2279.229268655777
-8.738842856276793,13.80469849745492,2253.3889418506624
-8.730781490487844,13.806855770896783,2227.7649354171754
-8.722231462354962,13.809011588839647,2202.449786403179
-8.71296250667983,13.811627064563059,2185.0311893677713
-8.703312206830116,13.814220819762921,2173.904939904213
-8.693632733109121,13.816376749667247,2166.6736589097977
-8.68417831496657,13.8179082705003,2161.746361556053
-8.675114618314371,13.818791814374416,2158.267037229538
-8.66653124861431,13.81907636442904,2155.806478843689
-8.65848655360895,13.81883010519428,2154.142528810501
-8.651003455625723,13.818120829335124,2153.1409311532975
-8.644104876992063,13.817006364946483,2152.698676171303
-8.637793943479892,13.815525730597722,2152.411965837479
-8.631992510791141,13.813768215554456,2152.225861644745
-8.626573464200948,13.811832289922148,2152.1225085783008
-8.621411772832401,13.809797054473414,2152.0768409442903
-8.616408453907942,13.807719049746353,2152.062591269016
-8.611486405053478,13.805624026877132,2151.849189505577
-8.606608117005932,13.80354031211553,2151.4762943887713
-8.60173816435018,13.8014829082974,2151.0132657837867
-8.596870295542379,13.799454166613438,2150.508003201485
-8.592006594430472,13.797449272720794,2149.987117481232
-8.587142893318568,13.795458933818155,2149.4626264214517
-8.582287527598456,13.793477103986598,2148.939852190018
-8.57743841342219,13.791498185153042,2148.4224001264574
-8.57259555078977,13.789515795514177,2147.909926865101
-8.56775268815735,13.787527863782964,2147.4034625029567
-8.562918160916725,13.78552722442586,2146.903007040024
-8.558085717524047,13.783512198020942,2146.408217110634
-8.553249106435473,13.78147864199413,2145.919264397621
-8.548456256153818,13.779346671842585,2144.282096886635
-8.543671741263957,13.777182232867178,2141.7665999937058
-8.538889310222045,13.775047743582746,2138.7660990929603
-8.534104795332183,13.77298345413473,2135.5396635818483
-8.529564090652302,13.77055411434121,2125.3976718091967
-8.525004631340884,13.76817090266986,2109.936259088516
-8.520203445667436,13.766180563767223,2091.4523700642585
-8.51501049657966,13.764731222646976,2071.468144748211
-8.509444538709095,13.763718867111303,2049.3124749398235
-8.503553500558557,13.7631296699197,2025.7912398648264
-8.49748741918034,13.762894158985251,2001.6588138985635
-8.49142758934597,13.76290692259187,1977.364491019249
-8.485561557370813,13.763068035135095,1953.1118870687485
-8.480016437979733,13.763301362821043,1928.961091039181
-8.47489017202631,13.763558426336848,1904.8878956508638
-8.4702494426449,13.763813698469267,1880.8303234004975
