Latitude,Longitude,Altitude (m)
22.903722986996005,120.27312452676385,10.961461238443851
22.90372768589852,120.27312455143235,10.905112360656261
22.903732327121638,120.27312458103454,10.848757358789443
22.90373690946727,120.27312461575315,10.792388883948325
22.903741432250797,120.27312465577093,10.736015509843826
22.90374589495875,120.27312470072239,10.679626213133334
22.903750296393042,120.27312475066847,10.623238141238689
22.903754637238293,120.27312480560916,10.566836596369743
22.90375891544064,120.27312486542263,10.510425252974033
22.90376313117124,120.27312493029163,10.454004111051558
22.90376728357431,120.27312500009432,10.397579294681549
22.90377137196523,120.27312507470889,10.341143454968929
22.903775396172847,120.2731251538917,10.284700266361236
22.90377935499907,120.27312523819094,10.228244829595088
22.90378324827275,120.27312532724115,10.171784493565559
22.903787074966942,120.2731254209205,10.115314359009265
22.90379083525281,120.2731255192899,10.058836263149976
22.903794527589955,120.27312562234938,10.002347756356
22.903798151807216,120.273125730038,9.945851900666952
22.903801706877665,120.27312584217304,9.889345021635293
22.903805193657078,120.27312595911995,9.832832018524408
22.90380860974928,120.27312608045239,9.776309216886759
22.903811955154268,120.27312620623123,9.719780903577805
22.903815229529734,120.27312633639558,9.663240342110395
22.903818432019897,120.27312647118909,9.606694881379603
22.903821561940138,120.27312661042902,9.55013962212205
22.903824618948143,120.2731267538108,9.493573339521884
22.903827602701604,120.27312690163902,9.437005219697951
22.903830511488966,120.27312705385275,9.380423014491797
22.90383334633716,120.2731272099647,9.323829785943031
22.903836104678856,120.27312737064489,9.267232270538805
22.90383878771214,120.27312753546695,9.210625569015741
22.903841394410083,120.27312770430906,9.154009681373834
22.903843923061125,120.27312787729305,9.097384607613087
22.903846374007582,120.27312805435798,9.040754022181034
22.903848746735985,120.2731282356257,8.98410996377468
22.90385103987709,120.27312842085257,8.9274597812891
22.903853253944362,120.2731286101604,8.870800412684678
22.90385538722625,120.27312880324463,8.814132470369339
22.903857439893905,120.27312900047073,8.757454729527234
22.90385941177618,120.27312920141233,8.700768414974211
22.903861300990354,120.27312940631307,8.644074751526118
22.903863107022964,120.27312961511205,8.587371289551257
22.90386483004517,120.27312982750472,8.53065680423379
22.903866469372343,120.2731300437956,8.473936194837092
22.903868023635248,120.27313026374108,8.417204562097787
22.90386949420312,120.27313048734115,8.360464968055487
22.903870878166323,120.27313071477855,8.303714350670576
22.903872176038316,120.2731309457487,8.246953322350977
22.90387338696333,120.27313118019073,8.190184945136307
22.90387451059905,120.27313141822643,8.133406769394874
22.903875545747383,120.27313166009947,8.07661757031083
22.90387649223718,120.27313190507888,8.019820409923792
22.903877349897286,120.273132153652,7.963009776562452
22.903878116844986,120.27313240575788,7.9061930191218845
22.903878794449525,120.27313266115289,7.849367075562476
22.903879380485886,120.27313291989795,7.792527046620846
22.903879874954065,120.27313318199305,7.735680893599986
22.903880276655972,120.27313344749909,7.678820655196905
22.90388058610508,120.27313371611154,7.6219512306749815
22.90388080210329,120.27313398770858,7.565070170402526
22.90388092362368,120.27313426283838,7.508180536419153
22.903880950837404,120.2731345410746,7.451278654277324
22.903880882375212,120.27313482247811,7.394366973608732
22.903880718065952,120.27313510686622,7.337443657189607
22.903880457738467,120.27313539448254,7.280509317427873
22.903880100194673,120.27313568471799,7.223561504691839
22.903879644407635,120.27313597818166,7.16660389342904
22.903879091233126,120.27313627450809,7.10963464641571
22.903878438617287,120.27313657394093,7.052652538836002
22.903877686902423,120.27313687635835,6.995658183097839
22.903876834719295,120.27313718145581,6.938651579201221
22.903875882239056,120.27313748935511,6.88163517677784
22.90387482860593,120.27313780005628,6.824603464156389
22.90387367279298,120.27313811349838,6.767561953008174
22.903872414629056,120.27313842986415,6.710506356477737
22.903871052916067,120.2731387485445,6.653436674565077
22.903869589023255,120.27313906978307,6.596356581717729
22.90386801935636,120.27313939418895,6.539258729040622
22.903866344942312,120.27313972084849,6.482150465428829
22.90386456578111,120.27314005012715,6.42502995365858
22.9038626801612,120.2731403817204,6.367892906874418
22.90386068739796,120.27314071581094,6.310740549892187
22.90385858868948,120.27314105245969,6.253577169567346
22.903856381126115,120.27314139154484,6.196397866636515
22.903854065734798,120.27314173294457,6.139205090731382
22.903851640461664,120.27314207671978,6.081995167404413
22.903849106333645,120.27314242256593,6.024771771103143
22.90384646112572,120.27314277084847,5.967530614972114
22.903843705864823,120.27314312126285,5.910277823090553
22.90384083815478,120.27314347368726,5.853009721010923
22.903837858851357,120.27314382873078,5.795723246693611
22.903834767269945,120.27314418572344,5.738422686994076
22.903831562725916,120.27314454460429,5.681105592280626
22.903828243165407,120.27314490549516,5.623772574961185
22.903824810299966,120.27314526845697,5.566420572996139
22.903821261391116,120.27314563348973,5.509052648425102
22.903817597465782,120.27314600041068,5.45166818884015
22.90381381749703,120.27314636921984,5.394267806649208
22.903809920115627,120.27314673973447,5.336849664628505
22.903805905321562,120.27314711225914,5.279413762778043
22.903801773114836,120.27314748642836,5.221959488689899
22.90379752212621,120.27314786236397,5.1644874547719954
22.903793150986438,120.27314824000506,5.1069982734322545
22.903788660893607,120.27314861935163,5.049490719854831
22.903784049793856,120.2731489999773,4.991965406447648
22.90377931871411,120.27314938243026,4.934419271171093
22.903774464915887,120.2731497665278,4.876855682268738
22.903769489768433,120.27315015196535,4.819273721128702
22.90376439173134,120.273150538682,4.76167277534306
22.903759169606527,120.27315092710414,4.704052844911813
22.903753824420924,120.2731513169881,4.646411173999309
22.90374835446298,120.2731517076639,4.588753580480813
22.903742759219224,120.27315210010609,4.531073940277099
22.90373703817619,120.27315249346191,4.473374703019857
22.903731190820412,120.27315288815775,4.415657399728894
22.903725217151894,120.27315328388907,4.357916518732905
22.90371911528792,120.2731536808995,4.300159408926963
22.903712886426582,120.27315407882357,4.2423805586397645
22.903706528342855,120.27315447784402,4.184580886483192
22.90370004155021,120.27315487783902,4.126761004865169
22.903693424165937,120.27315527874767,4.068922444805502
22.903686677559275,120.27315568044814,4.011061531856656
22.90367980001867,120.27315608281863,3.9531807156503196
22.90367278983257,120.27315648598095,3.8952784651666876
22.903665648541374,120.27315689023965,3.837356923833489
22.90365837460468,120.2731572948638,3.7794154792428016
22.903650967509027,120.27315770009704,3.721451987966895
22.9036434269121,120.27315810600031,3.663469512045383
22.90363575230043,120.27315851232994,3.6054656018465754
22.903627942818247,120.27315891896411,3.547441175982356
22.903619997780922,120.2731593262683,3.489396540656686
22.903611917017304,120.27315973369431,3.431332614481449
22.90360370001392,120.27316014179033,3.373244804397225
22.903595346770782,120.27316054958179,3.315140459299087
22.903586854891703,120.27316095792145,3.2570155985355376
22.903578225745928,120.27316136620018,3.198870528310537
22.903569458135372,120.27316177466166,3.1407055548280476
22.903560551717725,120.27316218287949,3.082521596699953
22.90355150512374,120.27316259109733,3.0243189601302145
22.90354231972266,120.27316299931516,2.966097338914871
22.903532992776,120.27316340716754,2.907857039257884
22.903523525481848,120.273163814959,2.8495983673632144
22.903513916299804,120.2731642223241,2.791321935638785
22.903504164887558,120.27316462932374,2.733025600656867
22.903494271587416,120.2731650358361,2.674714874088764
22.903484234858986,120.27316544161754,2.616387306302786
22.903474055044576,120.2731658469726,2.5580416724830863
22.903463731288408,120.27316625171858,2.499681493975222
22.903453263077015,120.27316665530726,2.4413056990653277
22.903442650239242,120.27316705840867,2.3829136753454803
22.90343189243278,120.2731674604137,2.324507413141429
22.90342098845954,120.273167861566,2.2660884434729813
22.90340993797721,120.27316826150009,2.2076575318500398
22.90339874235503,120.2731686602769,2.149213147252798
22.903387398683364,120.27316905795732,2.090756514497101
22.903375907646833,120.27316945362773,2.0322910018265246
22.903364269416585,120.2731698485063,1.9738141596093772
22.90335248210992,120.27317024155758,1.9153266002535818
22.90334054675376,120.27317063314703,1.856832457512617
22.90332846249234,120.273171023031,1.7983309658765791
22.903316228812184,120.27317141114858,1.739823809467256
22.90330384519983,120.27317179695159,1.6813114475905895
22.90329131216874,120.27317218117095,1.6227940333485602
22.90327862817852,120.27317256277117,1.564273250862956
22.903265793742634,120.2731729424832,1.5057530807852744
22.903252808176457,120.27317331969792,1.447229848667979
22.903239671137687,120.27317369441533,1.3887087599784136
22.903226382284004,120.27317406663543,1.3301902740225195
22.903212941957722,120.27317443629734,1.271674084596336
22.903199348276132,120.273174802731,1.2131646316573024
22.90318560295079,120.27317516636283,1.1546608434915542
22.903171704270136,120.27317552701007,1.096167083505541
22.90315765308995,120.27317588424636,1.037683198597282
22.903143447869834,120.27317623825442,0.9792097246237098
22.903129089123254,120.27317658872973,0.9207516373991965
22.903114576850207,120.27317693548952,0.8623097024336457
22.903099910708388,120.27317727871653,0.8038863693587481
22.90308509001317,120.2731776178626,0.7454824036844074
22.903070114935712,120.27317795250133,0.6871006377972662
22.903054985304856,120.27317828330274,0.6287436744309961
22.903039700949446,120.27317860990136,0.57041434597224
22.903024261013705,120.27317893144448,0.5121134944818914
22.90300866686688,120.27317924841935,0.4538444882035255
22.90299291731088,120.27317956058235,0.3956116139926016
22.90297701217455,120.2731798675071,0.3374164028689265
22.902960951629044,120.27318016919361,0.2792602901635691
22.902944735674364,120.27318046539821,0.22115072046034037
22.902928363968197,120.27318075612095,0.16308210553694516
22.902911836852855,120.27318104063087,0.10506696148030459
22.902895153814875,120.27318131917163,0.047106704483740026
22.902860816945033,120.27317871655453,1.9261680577099323
22.902840973521137,120.27317905137598,4.030376571536064
22.902817270712347,120.27318107809043,5.857927356630563
22.902772522112425,120.27318309000378,8.400653625577688
22.90272888191538,120.27318700163454,10.887188405573367
22.90268434366554,120.27319088408947,13.187857993423938
22.90264500152488,120.27319497321153,14.918331711828708
22.90260501138958,120.27319765233142,16.66228942787647
22.902571675950444,120.27319940714428,18.472060173749924
22.902552105519536,120.27320286189023,18.91161840993166
22.90252124824058,120.27320444840916,19.546652355790137
22.902508205979153,120.2732039411519,20.36427694863081
22.902520483689056,120.27320137891803,20.20266494745016
22.902531078384346,120.27319368630816,20.196773583233355
22.90255232973321,120.27317942986981,20.296271498441694
22.902578868588282,120.27315694615488,20.39217580395937
22.90260496962764,120.27312847926513,20.475040719985962
22.90263149153832,120.27309620072812,20.54819652080536
22.90265981948161,120.27306239542474,20.435366485118866
22.902681154867818,120.27303113971645,20.34543683129549
22.902690836277472,120.27300720829615,20.268628629624843
22.902683720830755,120.27299293891444,20.014839437544346
22.9026601581983,120.27298201914829,19.80079307001829
22.902631282044013,120.27296676080377,19.620825978577138
22.90260072976412,120.27294261872673,19.855247157692908
22.902575881411714,120.2729153902561,20.02070140618086
22.902549883236798,120.2728918393701,20.134401061117646
22.902526031522743,120.27287617557914,20.08274935209751
22.902507086536744,120.27286710652841,20.063983948528765
22.90249991148513,120.27286302946649,20.067166020095346
22.902506786929077,120.27286260781804,20.01465938961506
22.90252506937222,120.27286177514989,19.969048472344873
22.90255288924047,120.27285612347691,19.92561895209551
22.902585945011552,120.27284268901703,20.16301030963659
22.902625652740316,120.27282379098901,20.34091236156225
22.902663840437274,120.27280219646659,20.480182496905325
22.902700080727193,120.27278070637409,20.331911189913747
22.90272821047244,120.27276343121298,20.240201878666877
22.902751323137135,120.2727548571157,20.18450337809324
22.902767717093514,120.2727581570288,19.93124943053722
22.902774046080808,120.27277246309346,19.721692013084887
22.902776987901177,120.27279638703709,19.53841546922922
22.902776684955978,120.27282856467691,19.80513749182224
22.90278228807289,120.2728677215961,19.988210716247558
22.902787005460194,120.2729118452113,20.12194468396902
22.902793579028668,120.27295931101102,20.17277821600437
22.902801981906897,120.2730077912948,20.23764078873396
22.902812198690892,120.27305552750383,20.306503610014914
22.902823439498114,120.27310077143393,20.17589292269945
22.902831623126175,120.27313942580116,20.080304619669914
22.90284017987318,120.27316719295854,20.01223915350437
22.902850380397407,120.27318255034248,19.422245360732077
22.902850756939458,120.2731894340086,18.911724968910217
22.90285182169769,120.27319430990323,18.445851564288137
22.90285109274651,120.27319966783845,18.594117972016335
22.902858386879547,120.27320690703537,18.64962907576561
22.902862406465964,120.27321470045106,18.637977402627467
22.90286390698605,120.2732228206481,18.621517102479935
22.902865590471336,120.27323068581559,18.609984236478805
22.902867722726292,120.27323815190172,18.600070577025413
22.90286992173188,120.27324528639461,18.590022187829017
22.902871963616743,120.27325211579006,18.580015442371366
22.902873805934316,120.27325863497161,18.570360219061374
22.90287546922326,120.27326483949287,18.56109081274271
22.902877032899713,120.27327074068306,18.55179813492298
22.90287849884639,120.27327634262313,18.54249443376064
22.90287986928831,120.273281650125,18.533168685913086
22.902881145765868,120.27328666702594,18.52383436435461
22.902882330846403,120.2732913978333,18.514482895374297
22.902883426070314,120.27329584681078,18.50510815489292
22.902884433320306,120.27330001810024,18.495719941437244
22.902885355506026,120.27330391590446,18.48630600684881
22.90288619382556,120.27330754503532,18.476881048917768
22.90288695050393,120.2733109091474,18.467440168380737
22.902887627595007,120.27331401280895,18.457973566710947
22.902888227152648,120.27331686052732,18.448494716882706
22.9028887505461,120.27331945601796,18.43899382036924
22.902889201369632,120.27332180427553,18.429478226065633
22.902889579452086,120.27332390901549,18.419933236181734
22.90288988821657,120.27332577444065,18.410384571850297
22.902890129545796,120.27332740524105,18.400796713411808
22.902890304809006,120.27332880561947,18.391201506078243
22.902890416402375,120.27332997959599,18.381591600954533
22.90289046620862,120.27333093143426,18.37195474988222
22.90289045611045,120.27333166582434,18.362308100283144
22.90289038781941,120.27333218642086,18.352630830287932
22.902890263902844,120.27333249791386,18.342942536950112
22.90289008590115,120.27333260462791,18.333229747295377
22.90288985569703,120.27333251046129,18.323503484666347
22.902889575173198,120.2733322199822,18.313760074615477
22.902889246725834,120.27333173751525,18.30399951714277
22.902888871895335,120.27333106695868,18.294219362616538
22.902888452393256,120.27333021257617,18.284423285484312
22.902887990786933,120.27332917942324,18.274611285746097
22.902887487932134,120.27332797078904,18.264784588217733
22.902886947080823,120.27332659160723,18.25494196808338
22.90288636908877,120.2733250459588,18.245078526079652
22.902885756009844,120.27332333768108,18.235206510365007
22.902885110240224,120.27332147189045,18.225321021676063
22.902884433662617,120.27331945224155,18.215417160749436
22.902883727303955,120.2733172833026,18.205504726111887
22.90288299390273,120.27331496903274,18.195580043315886
22.90288223517049,120.27331251412203,18.185639437913892
22.90288145264764,120.27330992271233,18.17568780916929
22.902880648216893,120.27330719888462,18.165733730792997
22.902879824274418,120.27330434720713,18.15576250499487
22.90287898236062,120.27330137194355,18.145781480669974
22.902878124187048,120.27329827723574,18.1357955570817
22.90287725180757,120.27329506753013,18.12580473423004
22.902876366591435,120.27329174715132,18.11580656248331
22.902875471277127,120.27328832011935,18.10579981702566
22.90287456672042,120.27328479106338,18.095794296383858
22.902873655317496,120.27328116449074,18.08578142684698
22.90287273912222,120.27327744436056,18.075756309151647
22.90287181984614,120.27327363505836,18.0657360907197
22.902870898687354,120.2732697406651,18.055714647471902
22.902869977699723,120.27326576611446,18.045694429039955
22.902869058937114,120.27326171512196,18.035668086528776
22.902868144624545,120.27325759249948,18.025649092912673
22.902867235275487,120.27325340269343,18.01562397521734
22.90286633379958,120.27324914893202,18.005608656048775
22.902865441737227,120.27324483706263,17.99559823614359
22.90286456028651,120.27324047043527,17.985589041054247
22.90286369218592,120.27323605404456,17.9755822955966
22.902862838462394,120.2732315915451,17.96558412384987
22.90286200116979,120.27322708768784,17.95558472728729
22.90286118167736,120.27322254698014,17.94560002851486
22.902860382038963,120.27321797332019,17.935619004189967
22.902859604308468,120.2732133715808,17.92564900320768
22.902858849855118,120.2732087457211,17.915685126304627
22.902858119705844,120.27320410037026,17.905727373480797
22.902857416941448,120.27319943991378,17.895783093631266
22.902856742246552,120.27319476849352,17.88584371304512
22.902856097332705,120.27319009037318,17.87592147988081
22.902855484938403,120.27318541036463,17.86600414597988
22.902854905405952,120.27318073254884,17.85610028505325
22.902854361473842,120.27317606118949,17.846202548205852
22.902853854169003,120.27317140115936,17.83631583470106
22.902853385374147,120.27316675599126,17.826430346012113
22.902852956458517,120.27316213080157,17.816570578455924
22.90285256947598,120.2731575297931,17.806715710163115
22.902846988438128,120.27315079017879,18.77689479100704
22.902854372770104,120.27314205948228,19.61315373212099
22.902857480953596,120.27312858993832,20.332009175181387
22.90286136635412,120.27311112951989,20.187545820653437
22.902853796147294,120.27308951718132,20.182831504464147
22.902850251688484,120.27306674722055,20.266768134355544
22.90284932368348,120.27304475876365,20.199382440984248
22.902845153651395,120.27302377477113,20.147995292186735
22.9028413019685,120.27300311621995,20.112415616691113
22.90283854602298,120.27298223559146,20.090720453619955
22.90283654538659,120.27296174353737,20.06637233942747
22.902834752361795,120.27294233464318,20.03968972623348
22.90283284620323,120.2729242050691,20.056568913400174
22.902831730269504,120.27290661156263,20.06708150780201
22.902830776591177,120.27288863944052,20.07402988809347
22.90283026466514,120.27286977511088,20.04628290992975
22.902829294555886,120.27284989532264,20.024914772689343
22.90282792154664,120.27282902722634,20.007034910976884
22.902825618307357,120.2728072553192,20.00867371457815
22.902823371720544,120.2727853936766,20.006499666452406
22.902822327500967,120.27276431012692,20.001976421535012
22.902823251569398,120.27274513585749,20.005377735137937
22.902823567864722,120.27273058706707,20.00762037295103
22.902818695752863,120.27272347808018,20.011225005984304
22.9028057697488,120.27272493000358,19.966500855386254
