Latitude,Longitude,Altitude (m)
22.901813059290347,120.27404927195077,20.01550239793211
22.90182091289435,120.27405340716214,20.01577460563928
22.90182886526771,120.27405750378016,20.016044700689612
22.901836918468113,120.27406156283202,20.016314023807645
22.901845069820563,120.27406558255683,20.016581518664957
22.901853320971217,120.27406956471548,20.016847916565833
22.901861669450835,120.27407350886774,20.01711260809004
22.9018701160825,120.27407741530713,20.017376446425914
22.901878659014283,120.27408128315317,20.017638578385114
22.901887299275035,120.27408511416675,20.017899369619787
22.901896036041677,120.27408890746746,20.018159267038108
22.90190486787382,120.27409266276177,20.01841762059182
22.901913795388776,120.27409638181064,20.018674389652908
22.901922816734615,120.27410006226614,20.018930224269628
22.90193193211711,120.27410370559573,20.019183946229518
22.901941141124723,120.2741073125331,20.01943750567734
22.901950443345914,120.27411088205108,20.019688749328257
22.901959837957605,120.27411441458987,20.019939221046865
22.901969324548254,120.2741179108832,20.020188230156897
22.901978903735174,120.27412137005061,20.020435776658356
22.901988572431822,120.27412479223884,20.020682388715446
22.90199833207858,120.27412817847508,20.020927253767848
22.90200818041199,120.27413152831912,20.021171225003897
22.902018120518587,120.2741348416242,20.021413571119307
22.90202814828299,120.27413811883058,20.021654860906303
22.90203826473404,120.27414135979147,20.021894444316626
22.90204846801981,120.27414456494714,20.022133621446788
22.902058759786463,120.27414773429757,20.02237048278004
22.90206913818207,120.27415086754928,20.022606653437016
22.90207960300086,120.27415396470225,20.022841036461294
22.9020901538313,120.27415702722395,20.023075053833423
22.902100788821453,120.27416005350017,20.02330699917674
22.902111509823257,120.27416304426464,20.023537806935607
22.90212231477901,120.27416600039781,20.02376743648201
22.902133202248326,120.27416892057902,20.0239960097
22.902144174083134,120.27417180598218,20.024222592145204
22.902155228637273,120.27417465646056,20.024448483914135
22.902166365293436,120.27417747172068,20.02467323809862
22.90217758343432,120.27418025278972,20.024896651558578
22.902188883265687,120.27418299849376,20.02511900869012
22.902200263141385,120.27418570985999,20.025339456304906
22.902211723678725,120.27418838615469,20.025559213243426
22.902223264260392,120.27419102884531,20.025777548201383
22.902234883240233,120.27419363690463,20.025994704946875
22.90224658041248,120.27419621077289,20.026210683479906
22.902258355159827,120.27419875015659,20.02642560568452
22.90227020912842,120.27420125578944,20.0266384152323
22.90228213923173,120.27420372796495,20.026850777871907
22.902294145469746,120.27420616521567,20.02706163727492
22.902306229077087,120.27420856988951,20.02727172474563
22.902318386349908,120.2742109400788,20.02747990269959
22.90233062016898,120.27421327725095,20.027687511861323
22.902342927241985,120.27421558081902,20.027893455274402
22.902355308803543,120.27421785063623,20.028098626755177
22.902367764853658,120.27422008758309,20.028302335627377
22.902380292923095,120.27422229121932,20.02850506942719
22.90239289260031,120.2742244624254,20.028706299990414
22.90240556429685,120.2742265997339,20.028906474225224
22.902418308835784,120.27422870490572,20.029105470247565
22.902431122513267,120.27423077720718,20.029303409941495
22.90244400697545,120.27423281693173,20.029499887026844
22.90245696222234,120.27423482393266,20.02969522652775
22.902469984961623,120.27423679835667,20.029889956608415
22.90248307807407,120.2742387409375,20.030083224080503
22.902496239090446,120.27424065079471,20.030274947687982
22.902509467187674,120.2742425283685,20.03046598061919
22.902522762777295,120.2742443743926,20.03065587596595
22.90253612544777,120.27424618798653,20.030844227448107
22.902549555199094,120.27424796988404,20.03103184762597
22.902563048738962,120.27424972037859,20.03121800519526
22.902576608536606,120.27425143873647,20.031403472088275
22.902590231711248,120.27425312554465,20.031586826324464
22.90260391990905,120.27425478139011,20.031770018048583
22.90261767230693,120.27425640568588,20.031951828420162
22.9026314868472,120.27425799813845,20.032132460579277
22.90264536394139,120.2742595599218,20.03231219892204
22.902659303177966,120.27426109044893,20.032490962192416
22.902673304145388,120.27426259030682,20.03266793783009
22.902687366432115,120.27426405934872,20.032844304047526
22.902701489215072,120.27426549728116,20.033019695192575
22.902715671259646,120.27426690513134,20.03319362372905
22.902729912565828,120.27426828187204,20.033366455309093
22.90274421354516,120.27426962809025,20.033538271188736
22.902758572551488,120.27427094407945,20.033709518276154
22.902772989584815,120.27427222983962,20.03387958715111
22.902787463410515,120.27427348507732,20.03404778713733
22.902801994851675,120.27427471052621,20.03421545895934
22.902816582673672,120.27427590589285,20.034382074452935
22.902831225641894,120.27427707161745,20.03454767424613
22.902845923756335,120.27427820740651,20.034712258338928
22.902860677840078,120.2742793134068,20.03487607049942
22.902875485012352,120.27428039005854,20.035037810631096
22.902890346507768,120.27428143736171,20.035199347622694
22.90290526068017,120.27428245443588,20.035359787657857
22.902920227941102,120.27428344333542,20.03551921199262
22.902935247467482,120.27428440229946,20.03567737685889
22.902950318436236,120.27428533264863,20.035834891676902
22.902965439201207,120.27428623350252,20.035991106398402
22.90298061346624,120.27428710559482,20.036146630443632
22.902995836704413,120.27428794921903,20.036300407484173
22.90301110809265,120.27428876408166,20.036454062640665
22.903026430100176,120.2742895501827,20.036606377072633
22.903041799846225,120.27429030796237,20.036757797688246
22.90305721774233,120.27429103712723,20.036907796323298
22.903072682965423,120.27429173811745,20.037057551190255
22.903088195515494,120.27429241078633,20.037206087216735
22.903103752923315,120.27429305542734,20.037353241890667
22.90311935889273,120.27429367204047,20.03749999028444
22.90313500889682,120.2742942612127,20.037645479209722
22.903150704170198,120.27429482206358,20.03779015557468
22.903166443066706,120.27429535503335,20.037933531843127
22.90318222599788,120.27429586041545,20.038076054923234
22.90319805296373,120.27429633894364,20.03821772481501
22.90321392231809,120.27429678973743,20.038359475962817
22.90322983323789,120.2742972129436,20.038498911313713
22.903245786546204,120.27429760929583,20.03863761536032
22.903261782243028,120.2742979786474,20.03877566935867
22.90327781621298,120.27429832055806,20.038912951424717
22.90329389215991,120.27429863605502,20.03904946155846
22.903310007203036,120.27429892425782,20.039184549711646
22.90332616093083,120.27429918590019,20.039319394096733
22.9033423545779,120.27429942098212,20.039452450849115
22.903358584851944,120.2742996295036,20.039585466973485
22.90337485298757,120.27429981190487,20.039717711165547
22.903391159396325,120.27429996730547,20.039848370864988
22.90340750037435,120.27430009673259,20.039978827424346
22.90342387921396,120.27430020047973,20.040107862003147
22.903440293445925,120.27430027795991,20.04023644967377
22.903456741012544,120.27430032976011,20.040364306040107
22.903473223971517,120.27430035529336,20.04049065916985
22.903489739442065,120.27430035529336,20.04061668727547
22.903506290304968,120.27430032990685,20.040741618424654
22.90352287409099,120.27430027869363,20.040866143293677
22.90353948915397,120.27430020238738,20.04098928681016
22.903556136728533,120.27430010069465,20.041112105302513
22.903572814756977,120.27429997332192,20.0412339893505
22.903589525297,120.27429982114965,20.041354532673953
22.903606263821676,120.27429964403113,20.04147491348535
22.90362303362331,120.27429944225982,20.04159448173642
22.90363983182114,120.27429921480852,20.041713115543125
22.90365665882669,120.27429896285118,20.04183097741753
22.90367351546305,120.27429868682802,20.041948107987643
22.903690397614827,120.27429838600533,20.042064507253468
22.903707307751255,120.27429806097008,20.042179687678814
22.903724244637715,120.2742977114288,20.042294868104158
22.903741207451127,120.27429733738147,20.042408829689027
22.90375819577996,120.27429693970855,20.042522263109685
22.90377520880113,120.27429651796982,20.042634437061846
22.903792247337716,120.2742960715783,20.04274620473385
22.903809309332022,120.27429560244165,20.04285776926577
22.903826394372512,120.274295108212,20.042967871189116
22.903843503282264,120.27429459211766,20.043077526204286
22.903860631945886,120.27429405107705,20.043186409287156
22.903877786124923,120.27429348729132,20.04329468294978
22.90389495964629,120.27429289943977,20.04340202216804
22.90391215415615,120.27429228913657,20.04350883322209
22.903929370066034,120.27429165579476,20.043615197367966
22.903946604083632,120.27429099941433,20.04372034267336
22.9039638578551,120.27429031940832,20.043825406722725
22.903981130557362,120.27428961695065,20.04392941444367
22.90399842219042,120.2742888921881,20.044032853372393
22.90401573151965,120.27428814424019,20.04413596727699
22.90403305648736,120.27428737398736,20.044238268621264
22.90405039915125,120.27428658098941,20.04433935112506
22.904067757865157,120.2742857658333,20.044440230488778
22.904085131806006,120.27428492881252,20.04454021603614
22.904102521385337,120.2742840693401,20.044640079699455
22.90411992619161,120.274283188003,20.04473896829039
22.90413734457867,120.27428228480123,20.044837044321
22.904154774488816,120.27428135958803,20.044934998467564
22.90417221962591,120.27428041236344,20.045032058797776
22.90418967587455,120.27427944386112,20.045128428451715
22.90420714652706,120.27427845393437,20.04522463559359
22.90422462499881,120.27427744243643,20.04531994891912
22.904242116639807,120.27427640922056,20.045414612196385
22.90425961733466,120.27427535590094,20.0455086254254
22.904277129552604,120.2742742802764,20.045602923050524
22.904294650824408,120.27427318425462,20.04569547367096
22.90431217950391,120.27427206695515,20.04578830868751
22.90432971723727,120.27427092925842,20.045880453027785
22.904347262789873,120.27426977087096,20.04597158166766
22.9043648149271,120.2742685914993,20.04606218214333
22.904382375295103,120.27426739158363,20.046152254454793
22.904399939778497,120.27426617171095,20.0462424486503
22.904417511258053,120.2742649310008,20.046331545889377
22.904435086853002,120.2742636698934,20.046420765012503
22.904452668209494,120.27426238941597,20.046508765295147
22.904470254915992,120.27426108839452,20.046596724949776
22.90448784203403,120.27425976785631,20.046683872044085
22.90450543285592,120.27425842692084,20.04677069411427
22.904523027381657,120.27425706676208,20.04685706927627
22.904540623553554,120.27425568679303,20.04694291627407
22.904558222606223,120.27425428760068,20.04702811322361
22.904575821247352,120.2742528687448,20.04711302577704
22.904593419476942,120.27425143051887,20.047197369538246
22.904611017706532,120.27424997321639,20.04728102262318
22.90462861634766,120.2742484963971,20.047364960104225
22.90464621457725,120.27424700079476,20.047447353720663
22.904663809514528,120.27424548626259,20.047530316129325
22.90468140362873,120.2742439530941,20.04761287225783
22.904698992804462,120.27424240128926,20.047694087661803
22.90471657909942,120.27424083070136,20.047775628089905
22.904734164159766,120.2742392417706,20.047856680981813
22.904751741812408,120.27423763435026,20.047937083825467
22.904769316995814,120.27423600829358,20.048017242901025
22.904786886417675,120.27423436448103,20.048096873812376
22.904804449254915,120.27423270217889,20.048176423467694
22.904822007976765,120.27423102182739,20.04825520119071
22.90483955641014,120.27422932386675,20.04833361326158
22.904857099081966,120.27422760829698,20.04841153779626
22.904874634346093,120.27422587497134,20.048489624843
22.904892159321747,120.27422412388982,20.048567264981568
22.90490967647816,120.27422235490567,20.048643889419733
22.904927184992253,120.27422056889938,20.048721285790204
22.904944682394795,120.2742187651372,20.048797585204245
22.904962169508863,120.27421694523332,20.048873234570024
22.90497964427676,120.27421510786705,20.048949493356048
22.904997108756184,120.27421325318514,20.049025061465798
22.9050145604779,120.27421138148105,20.04909993889928
22.905032001499603,120.2742094930483,20.049174938216805
22.905049426882822,120.27420758803362,20.049249206230044
22.905066840742954,120.274205666437,20.04932310859114
22.90508423937614,120.27420372825844,20.049397214092313
22.90510162237085,120.27420177379143,20.049470872685312
22.905118990550154,120.2741998027425,20.049544084370137
22.90513634432559,120.27419781599208,20.049617174170912
22.90515367958178,120.27419581265974,20.049689857691526
22.905171000022563,120.27419379377265,20.049762419328093
22.90518830153255,120.27419175845039,20.0498345746845
22.90520558822714,120.27418970786687,20.049906445644794
22.90522285434478,120.27418764158186,20.04997791032493
22.905240100297007,120.27418555988888,20.05005014693737
22.90525732814152,120.27418346220092,20.05012096156925
22.905274536643702,120.27418134910498,20.050191613689066
22.905291724568936,120.27417922118802,20.050263200253248
22.905308889859526,120.27417707742283,20.050333446092903
22.905326034573168,120.27417491898338,20.05040377318859
22.905343158298322,120.27417274601639,20.050473734632135
22.905360259388832,120.27417055734792,20.050543899215757
22.90537733619854,120.27416835371169,20.05061304809898
22.90539439037361,120.27416613657512,20.050683537706732
22.905411419444796,120.27416390403056,20.050752524077893
22.90542842423519,120.27416165754543,20.05082171358913
22.905445405156318,120.27415939609254,20.050890862472354
22.905462359327416,120.27415712084583,20.050959767587482
22.905479287983095,120.2741548310716,20.05102855081856
22.90549618741951,120.27415252750353,20.051097293421627
22.90551306257512,120.27415020984816,20.051165142208337
22.905529909746086,120.27414787810548,20.051233762927353
22.905546728520857,120.27414553286248,20.051301489830017
22.905563517664827,120.27414317397239,20.05136974489689
22.90558027717799,120.27414080158196,20.051437634311615
22.905597007883422,120.27413841539772,20.051505117446183
22.905613707311893,120.27413601615338,20.0515727224648
22.90563037793264,120.27413360370217,20.051640611879527
22.905647014807187,120.27413117775063,20.051707891874013
22.905663622050927,120.274128738739,20.05177476558834
22.905680195136934,120.27412628666724,20.051842289350926
22.905696734888284,120.27412382197562,20.051909163065254
22.905713242128055,120.27412134437063,20.05197656494379
22.90572971603317,120.2741188542925,20.05204331677407
22.905746152899777,120.27411635203471,20.052109987348317
22.90576255848942,120.27411383686358,20.05217690169066
22.905778928686715,120.2741113092193,20.05224418168515
22.905795259376266,120.27410876939537,20.052310202211142
22.905811555496545,120.27410621768527,20.052377360321582
22.905827814578313,120.27410365350205,20.052443787127732
22.905844037444652,120.27410107787288,20.052510417073965
22.905860220803252,120.27409848977058,20.052576925136147
22.905876363007955,120.27409589036908,20.052643473826347
22.905892469820305,120.27409327966839,20.05270969749242
22.905908534655676,120.27409065664132,20.052776002414525
22.905924561629465,120.27408802275527,20.05284259173274
22.9059405458032,120.27408537698307,20.05290914042294
22.905956491292276,120.27408272020514,20.052975810997186
22.905972392335137,120.27408005242151,20.053041994035244
22.905988252224102,120.27407737348544,20.053108502097427
22.90600406766686,120.2740746836904,20.05317460387945
22.906019843601875,120.27407198244941,20.053241640105842
22.906035573444523,120.2740692707897,20.053307620003817
22.9060512613102,120.27406654900473,20.05337416869402
22.90606690226043,120.2740638163608,20.053440879896282
22.906082497941377,120.27406107315139,20.053507103562353
22.906098046706877,120.27405832011021,20.05357397727668
22.90611355184925,120.27405555606332,20.05364076973498
22.906129009253096,120.27405278291839,20.053707521565258
22.906144418095348,120.27404999876774,20.05377447653562
22.906159780845233,120.27404720478532,20.053841390877963
22.906175094210443,120.27404440126463,20.053908427104354
22.906190358190972,120.27404158791217,20.053975097678602
22.906205573609906,120.27403876502143,20.05404233704507
22.906220737998005,120.27403593215219,20.054109535783528
22.90623585382451,120.2740330898914,20.054176815778018
22.90625091697402,120.2740302386793,20.054243892632424
22.906265930738858,120.27402737792893,20.054311741419134
22.906280887711315,120.274024508374,20.054379143297673
22.90629579776833,120.27402162986775,20.0544470327124
22.90631065267912,120.27401874241018,20.054514922127126
22.906325453266767,120.27401584585458,20.05458297405392
22.906340202000504,120.27401294034765,20.054651066608727
22.906354893941863,120.27401002662313,20.054719159163533
22.906369532383156,120.2740071042408,20.05478757674247
22.906384114855147,120.27400417364086,20.054856116205453
22.90639864053476,120.27400123379613,20.054924168132246
22.90641311106815,120.27399828676101,20.0549933982715
22.90642752151685,120.27399533106806,20.055062222130594
22.906441878465486,120.273992367451,20.055131736665963
22.90645617368327,120.27398939635006,20.055201088689266
22.906470411285603,120.273986417325,20.055270318828523
22.90648459127248,120.27398343008237,20.05534003650397
22.906498711174663,120.27398043535584,20.055409876063464
22.90651277099216,120.27397743343892,20.055479593738912
22.90652676825573,120.27397442359788,20.055549758322535
22.906540704611533,120.27397140627296,20.055620572954414
22.90655457923649,120.27396838205114,20.055690859422086
22.906568393776755,120.27396535151938,20.055761674053965
22.906582144116943,120.27396231277002,20.055832813709973
22.90659583108013,120.27395926771072,20.055903993993997
22.906609454666313,120.27395621531429,20.055975621186196
22.906623014875493,120.2739531569014,20.05604712649435
22.90663650923844,120.27395009159159,20.056119078710676
22.906649937755148,120.27394701953162,20.056191112183033
22.9066633012487,120.27394394101498,20.056263308167456
22.90667659971909,120.27394085574815,20.056335951060056
22.906689829874015,120.27393776505185,20.056408878348766
22.906702993359627,120.2739346683391,20.05648221191764
22.906716088529766,120.27393156502292,20.056555342346428
22.906729116207515,120.27392845598378,20.05662920407951
22.906742073923642,120.27392534166188,20.056702862672505
22.90675496167814,120.27392222073658,20.05677749633789
22.906767781117168,120.27391909438178,20.056851561211047
22.906780528948413,120.27391596245076,20.056926357388495
22.906793207641112,120.27391282553049,20.05700099105388
22.906805813079874,120.27390968347422,20.057076396651567
22.906818348557014,120.27390653584172,20.057152452297508
22.906830809134057,120.27390338219277,20.057227776639163
22.906843199749474,120.27390022472851,20.057304522961378
22.90685551464172,120.27389706212824,20.057381350539625
22.90686775628003,120.27389389468547,20.057458137489856
22.906879923841323,120.27389072195996,20.05753488381207
22.906892017325603,120.27388754541913,20.057612605206668
22.906904032617476,120.27388436388905,20.057690570369363
22.906915973832337,120.27388117766321,20.057768535532055
22.906927837677866,120.27387798791554,20.057847150743008
22.906939626623306,120.27387479288512,20.057925969094036
22.906951334907106,120.27387159491985,20.05800474681705
22.906962967467734,120.27386839240556,20.05808441835642
22.906974520189802,120.27386518534225,20.058164577431977
22.906985994719463,120.27386197505058,20.05824477713555
22.906997390233645,120.27385876079687,20.05832534249127
22.907008705909263,120.27385554302133,20.058405704706907
22.90701993845401,120.27385232201743,20.058487163878976
22.90703109280635,120.27384909749172,20.05856939498335
22.90704216320474,120.2738458691507,20.058651138551532
22.907053152941494,120.2738426381683,20.058733775936066
22.907064061193527,120.2738394033706,20.058816575832665
