Latitude,Longitude,Altitude (m)
23.992184,-122.2775,12239.23
24.00236,-122.25446,12238.688
24.012447,-122.2294,12237.841
24.022383,-122.20278,12237.287
24.032152,-122.17623,12237.259
24.041481,-122.14658,12239.812
24.051168,-122.12604,12242.227
24.060822,-122.10345,12245.399
24.070848,-122.08423,12248.051
24.081257,-122.06631,12248.89
24.091764,-122.044525,12248.374
24.101984,-122.01745,12248.095
24.112072,-121.9917,12247.574
24.122322,-121.96935,12245.031
24.132843,-121.946945,12239.294
24.142899,-121.914825,12233.212
24.152279,-121.878296,12229.043
24.161297,-121.84599,12226.39
24.170305,-121.8187,12224.22
24.179405,-121.792564,12222.598
24.188679,-121.76734,12221.517
24.198023,-121.74228,12221.174
24.207613,-121.7201,12220.51
24.217272,-121.69613,12219.968
24.226892,-121.67069,12220.19
24.236513,-121.64637,12221.003
24.246313,-121.62437,12221.536
24.256094,-121.600395,12222.436
24.265865,-121.57617,12223.943
24.27575,-121.553825,12225.397
24.285929,-121.53353,12225.634
24.296322,-121.51097,12224.931
24.307116,-121.48818,12222.864
24.317995,-121.46163,12220.4
24.328196,-121.42605,12221.813
24.338945,-121.40519,12222.701
24.350016,-121.38613,12221.902
24.360903,-121.35915,12222.148
24.371819,-121.3342,12223.027
24.382772,-121.31194,12223.549
24.393469,-121.28571,12225.339
24.404364,-121.263885,12227.05
24.41497,-121.23823,12230.396
24.425873,-121.21793,12233.815
24.436968,-121.19848,12236.786
24.447878,-121.17411,12241.219
24.458965,-121.15378,12245.966
24.470276,-121.13568,12249.956
24.481985,-121.11909,12251.783
24.494036,-121.10121,12250.452
24.505825,-121.07514,12247.739
24.51737,-121.04745,12243.607
24.528214,-121.01402,12240.142
24.538805,-120.98379,12236.719
24.549088,-120.95338,12233.926
24.559013,-120.921844,12233.107
24.56896,-120.89439,12233.909
24.579128,-120.87173,12235.208
24.589731,-120.85226,12235.768
24.60063,-120.83131,12235.599
24.611454,-120.806114,12235.979
24.622429,-120.78339,12235.91
24.633543,-120.76158,12234.526
24.64496,-120.74045,12230.617
24.656084,-120.71163,12226.19
24.667133,-120.68369,12220.59
24.677998,-120.65505,12213.608
24.688192,-120.61895,12208.149
24.69794,-120.58386,12205.051
24.70753,-120.553535,12203.916
24.71754,-120.53112,12202.555
24.727833,-120.50814,12201.118
24.738192,-120.48258,12200.57
24.748491,-120.45612,12201.635
24.758984,-120.43388,12203.184
24.76955,-120.41165,12205.31
24.780375,-120.39043,12207.672
24.791481,-120.37123,12209.234
24.802807,-120.35113,12209.651
24.814165,-120.32814,12209.303
24.825388,-120.30274,12208.655
24.836313,-120.2748,12208.677
24.846981,-120.24688,12209.83
24.857489,-120.22034,12212.295
24.868296,-120.19952,12214.359
24.879154,-120.177155,12216.466
24.890385,-120.15727,12217.41
24.901575,-120.1342,12217.776
24.912642,-120.108635,12218.268
24.923557,-120.08285,12219.019
24.934504,-120.05919,12219.264
24.945395,-120.034424,12219.294
24.956059,-120.00682,12220.324
24.966793,-119.98295,12221.335
24.97775,-119.962006,12221.037
24.988766,-119.9387,12219.699
24.999485,-119.91042,12218.933
25.009912,-119.881744,12219.277
25.0206,-119.860146,12218.315
25.031187,-119.834915,12217.0
25.041874,-119.81014,12214.982
25.05221,-119.78075,12213.933
25.062506,-119.75402,12213.301
25.072857,-119.72957,12212.418
25.083084,-119.70278,12212.279
25.093273,-119.676605,12213.071
25.103516,-119.652534,12214.397
25.113895,-119.63012,12215.808
25.12456,-119.609825,12216.302
25.135342,-119.587746,12216.02
25.1462,-119.5645,12214.893
25.156803,-119.53728,12214.078
25.167395,-119.511856,12212.963
25.17791,-119.48651,12211.411
25.188042,-119.45642,12211.381
25.198221,-119.43042,12212.043
25.208742,-119.41002,12211.387
25.219353,-119.38679,12209.906
25.229671,-119.35763,12209.7
25.239985,-119.33164,12210.043
25.250355,-119.30815,12210.175
25.260834,-119.28456,12210.03
25.271538,-119.26261,12208.702
25.282341,-119.239235,12206.061
25.292812,-119.20992,12203.926
25.302927,-119.179016,12203.288
25.312931,-119.151634,12203.601
25.323092,-119.12817,12203.826
25.333658,-119.10817,12202.486
25.344107,-119.08177,12201.406
25.354713,-119.05765,12199.639
25.365065,-119.030365,12198.108
25.37509,-119.000015,12198.295
25.385065,-118.973404,12199.633
25.39496,-118.94782,12202.412
25.405,-118.92477,12206.391
25.414993,-118.900856,12212.522
25.42579,-118.88799,12217.076
25.437206,-118.87605,12218.463
25.448755,-118.85645,12217.8545
25.460167,-118.83191,12215.924
25.470716,-118.798515,12215.646
25.480888,-118.76804,12216.823
25.490965,-118.74199,12218.675
25.50121,-118.7192,12220.433
25.51186,-118.69978,12220.696
25.522903,-118.680664,12218.444
25.534065,-118.65801,12213.654
25.544817,-118.62778,12208.108
25.554956,-118.59247,12203.635
25.564644,-118.558464,12200.508
25.573841,-118.52374,12200.16
25.583057,-118.4948,12201.996
25.59283,-118.47462,12203.6875
25.603123,-118.455956,12204.496
25.614025,-118.43901,12202.943
25.62476,-118.41323,12201.159
25.635187,-118.38377,12200.3
25.64541,-118.355675,12200.2295
25.655579,-118.32954,12200.616
25.666153,-118.309,12199.45
25.676418,-118.28079,12199.115
25.686504,-118.25137,12200.532
25.696672,-118.22693,12202.513
25.706945,-118.203636,12204.941
25.717392,-118.18146,12207.545
25.728134,-118.16138,12209.393
25.739046,-118.140526,12210.231
25.74989,-118.11631,12210.771
25.76056,-118.09022,12211.539
25.771055,-118.06388,12212.722
25.781427,-118.03757,12214.612
25.792067,-118.01674,12215.325
25.802593,-117.991585,12216.086
25.81362,-117.972206,12214.456
25.824867,-117.95204,12209.463
25.835793,-117.92243,12203.205
25.845938,-117.88477,12198.37
25.855377,-117.84624,12196.289
25.86467,-117.81472,12195.909
25.874016,-117.78693,12196.977
25.88367,-117.76255,12199.024
25.893755,-117.74163,12201.126
25.90412,-117.72053,12203.178
25.914986,-117.70256,12203.61
25.925764,-117.678764,12203.681
25.936596,-117.65469,12203.105
25.947388,-117.63044,12201.496
25.958298,-117.60734,12197.8125
25.968838,-117.57749,12193.788
25.97916,-117.546936,12189.616
25.989033,-117.51406,12186.328
25.998756,-117.48331,12183.758
26.008345,-117.4534,12182.165
26.017914,-117.42454,12181.821
26.027502,-117.39731,12182.774
26.037294,-117.37305,12184.51
26.047411,-117.35175,12186.157
26.057829,-117.33154,12187.069
26.068321,-117.30862,12187.765
26.07861,-117.281586,12189.568
26.089165,-117.26048,12190.512
26.099998,-117.24136,12189.311
26.110743,-117.21632,12187.18
26.121496,-117.19113,12183.599
26.131645,-117.15822,12180.919
26.141205,-117.12231,12180.909
26.150723,-117.093285,12182.369
26.160622,-117.07165,12183.324
26.170637,-117.04743,12184.694
26.181108,-117.02692,12185.079
26.191265,-116.99916,12186.713
26.201328,-116.97197,12189.852
26.211756,-116.95215,12192.237
26.222332,-116.93153,12193.771
26.232903,-116.90723,12195.383
26.243402,-116.8817,12197.443
26.25398,-116.858894,12199.021
26.264704,-116.83744,12199.337
26.275507,-116.8146,12198.275
26.286158,-116.78835,12196.475
26.296606,-116.76001,12194.398
26.306837,-116.731415,12192.085
26.316906,-116.70236,12189.764
26.32675,-116.6722,12187.995
26.33605,-116.63728,12189.126
26.345331,-116.60762,12192.652
26.35489,-116.58476,12197.243
26.365223,-116.56974,12200.358
26.375822,-116.550385,12202.842
26.387337,-116.53846,12201.084
26.398703,-116.51645,12196.676
26.409302,-116.481224,12193.2295
26.419313,-116.4461,12191.111
26.429178,-116.41687,12188.901
26.439135,-116.39059,12185.773
26.448858,-116.35953,12183.38
26.458778,-116.33242,12180.631
26.468727,-116.30531,12177.407
26.478443,-116.27395,12175.181
26.487967,-116.24252,12174.471
26.497057,-116.208084,12177.24
26.50676,-116.18706,12180.05
26.516956,-116.16894,12181.878
26.527323,-116.14643,12183.816
26.53794,-116.12471,12185.281
26.548483,-116.101006,12186.597
26.559086,-116.0774,12187.474
26.569656,-116.05341,12187.777
26.580212,-116.028786,12187.426
26.590551,-116.00122,12187.231
26.601082,-115.97786,12185.659
26.611523,-115.95212,12183.046
26.62165,-115.92177,12180.714
26.631758,-115.893684,12177.957
26.641327,-115.859924,12176.89
26.650726,-115.82831,12177.6045
26.660336,-115.803375,12178.575
26.669928,-115.77685,12180.682
26.679724,-115.75241,12183.641
26.68994,-115.73297,12185.873
26.70036,-115.71231,12187.389
26.710981,-115.69123,12187.814
26.721956,-115.672935,12185.389
26.732613,-115.646286,12181.827
26.742603,-115.61171,12179.516
26.752037,-115.57656,12179.297
26.761618,-115.55039,12178.989
26.771242,-115.524475,12178.743
26.780933,-115.4977,12179.027
26.790766,-115.47256,12179.442
26.800358,-115.44347,12181.515
26.809875,-115.41528,12185.616
26.819927,-115.39658,12189.112
26.830355,-115.37914,12191.221
26.841122,-115.360695,12191.505
26.851889,-115.33814,12190.415
26.862356,-115.310646,12188.985
26.872484,-115.280815,12187.872
26.882183,-115.249306,12187.915
26.891748,-115.2201,12188.973
26.901358,-115.19405,12190.516
26.911154,-115.1705,12191.962
26.921133,-115.14762,12193.051
26.93121,-115.12394,12193.859
26.941032,-115.09589,12195.792
26.951124,-115.07343,12197.205
26.961237,-115.05012,12198.185
26.9712,-115.02325,12199.843
26.981026,-114.99553,12202.734
26.990906,-114.971054,12206.196
27.001368,-114.954735,12207.48
27.01228,-114.938614,12205.515
27.023087,-114.914185,12201.742
27.033712,-114.88701,12196.166
27.043592,-114.85149,12191.056
27.052843,-114.81375,12187.573
27.061716,-114.7784,12185.851
27.07076,-114.75046,12184.308
27.080029,-114.72468,12182.547
27.089418,-114.69766,12181.016
27.098616,-114.666885,12181.1455
27.107904,-114.63962,12182.314
27.117216,-114.6131,12184.708
27.12696,-114.59181,12186.929
27.13692,-114.570335,12188.885
27.147236,-114.55047,12189.695
27.157429,-114.52568,12190.456
27.16797,-114.50539,12189.295
27.17846,-114.4821,12186.381
27.188343,-114.4488,12184.522
27.197916,-114.41635,12183.823
27.207476,-114.38906,12183.064
27.21671,-114.357506,12183.995
27.225973,-114.32893,12186.389
27.235415,-114.30414,12189.607
27.244938,-114.27961,12193.948
27.255074,-114.262596,12197.12
27.26549,-114.24433,12198.948
27.27572,-114.21894,12201.223
27.285933,-114.19439,12203.591
27.29633,-114.17402,12204.487
27.306852,-114.15308,12203.502
27.317068,-114.12518,12202.264
27.326923,-114.09427,12201.712
27.33654,-114.06486,12201.638
27.346197,-114.03856,12201.306
27.35576,-114.010826,12201.277
27.365513,-113.98603,12200.697
27.375154,-113.95868,12200.292
27.38501,-113.93498,12198.79
27.394566,-113.90645,12197.438
27.40385,-113.87574,12197.025
27.41296,-113.84654,12197.422
27.42234,-113.82322,12196.958
27.431479,-113.794624,12197.243
27.440903,-113.77011,12197.11
27.450386,-113.7452,12196.517
27.459856,-113.7188,12195.766
27.4695,-113.694496,12193.985
27.479021,-113.66725,12191.771
27.488373,-113.63791,12189.638
27.497595,-113.60849,12187.669
27.50646,-113.57588,12187.138
27.515497,-113.54873,12186.779
27.52444,-113.52022,12187.272
27.533514,-113.49355,12188.386
27.542852,-113.47036,12189.11
27.552452,-113.448166,12188.927
27.562084,-113.42319,12188.331
27.571596,-113.3956,12187.929
27.581085,-113.368904,12187.387
27.59057,-113.342964,12186.391
27.60017,-113.317986,12184.419
27.609531,-113.28883,12182.548
27.618664,-113.257866,12181.417
27.627897,-113.23112,12179.907
27.637054,-113.20335,12178.325
27.64623,-113.17559,12176.698
27.655428,-113.14832,12174.8545
27.664396,-113.11777,12173.872
27.673174,-113.08643,12174.372
27.681896,-113.05686,12176.408
27.690626,-113.02906,12180.063
27.699919,-113.009605,12183.13
27.709587,-112.99083,12185.147
27.71911,-112.96462,12188.089
27.728796,-112.94131,12191.067
27.738583,-112.919586,12193.429
27.748499,-112.89773,12194.894
27.75798,-112.86818,12197.7
27.767624,-112.84411,12200.378
27.777369,-112.82252,12202.075
27.787037,-112.797714,12203.534
27.797045,-112.77716,12203.142
27.806866,-112.75194,12201.748
27.81641,-112.722885,12200.211
27.825815,-112.69441,12198.266
27.835346,-112.66998,12194.457
27.844555,-112.63944,12190.266
27.853237,-112.60293,12187.621
27.861828,-112.5713,12185.555
27.870037,-112.53674,12185.493
27.878458,-112.507935,12186.442
27.887144,-112.48272,12187.723
27.896612,-112.465546,12186.768
27.905907,-112.43866,12185.945
27.915346,-112.41249,12184.804
27.924572,-112.38403,12183.854
27.933876,-112.35812,12182.255
27.942924,-112.32785,12181.263
27.95165,-112.2947,12182.069
27.96068,-112.27012,12182.541
27.969881,-112.246346,12182.388
27.979118,-112.2201,12182.208
27.98828,-112.19222,12182.442
27.997135,-112.161095,12184.285
28.006025,-112.133575,12187.138
28.01525,-112.111855,12189.503
28.024742,-112.09042,12191.137
28.034414,-112.06774,12192.073
28.043924,-112.04108,12193.239
28.053583,-112.01736,12193.581
28.06324,-111.99332,12192.862
28.072857,-111.967476,12191.242
28.082478,-111.941635,12188.357
28.092049,-111.91522,12183.91
28.101278,-111.88345,12179.109
28.110104,-111.848366,12174.938
28.118761,-111.815445,12171.021
28.127108,-111.78111,12168.12
28.135193,-111.74534,12167.27
28.143208,-111.71208,12168.563
28.151445,-111.68381,12171.315
28.159967,-111.65867,12175.149
28.169317,-111.64246,12177.508
28.178785,-111.621025,12179.4795
28.188593,-111.60068,12180.256
28.198198,-111.574875,12180.963
28.207438,-111.54483,12182.801
28.216635,-111.51778,12185.124
28.226088,-111.49644,12186.294
28.23562,-111.473366,12186.525
28.244814,-111.443405,12187.684
28.254019,-111.41682,12188.92
28.263187,-111.39115,12189.978
28.272385,-111.36547,12190.861
28.281557,-111.33946,12191.642
28.29075,-111.31349,12192.247
28.299795,-111.28544,12193.311
28.308968,-111.26059,12193.931
28.318172,-111.235794,12193.971
28.327442,-111.21085,12193.264
28.336622,-111.18417,12192.052
28.34575,-111.15712,12190.261
28.354553,-111.12584,12189.084
28.363174,-111.094284,12188.843
28.371397,-111.058,12191.62
28.380398,-111.03335,12194.958
28.38977,-111.006325,12200.225
28.400873,-110.9951,12203.095
28.412926,-110.981,12203.737
28.425331,-110.95674,12204.518
28.438396,-110.93487,12204.483
28.45176,-110.9124,12203.471
28.46516,-110.88667,12202.1455
28.478085,-110.85398,12202.627
28.491081,-110.82708,12203.692
28.504297,-110.805435,12204.029
28.51782,-110.78539,12203.002
28.531277,-110.76066,12201.649
28.54412,-110.726524,12202.8125
28.556885,-110.6971,12205.816
28.570118,-110.67771,12208.216
28.583714,-110.659485,12209.634
28.597664,-110.64122,12209.671
28.611639,-110.61992,12208.647
28.625683,-110.59847,12206.033
28.639107,-110.567505,12204.273
28.652138,-110.53551,12203.899
28.665215,-110.50947,12203.582
28.678223,-110.48342,12203.568
28.691423,-110.45936,12203.44
28.704239,-110.42903,12205.212
28.717323,-110.40484,12207.575
28.730719,-110.38521,12209.341
28.744211,-110.3636,12210.983
28.757858,-110.34149,12212.512
28.771595,-110.320274,12213.47
28.785421,-110.2992,12213.535
28.79921,-110.27647,12212.863
28.812948,-110.25268,12211.462
28.826723,-110.22956,12208.809
28.840315,-110.203964,12205.26
28.853487,-110.17291,12202.218
28.866337,-110.14091,12200.18
28.879053,-110.1107,12199.034
28.89169,-110.08188,12198.832
28.904346,-110.05373,12199.849
28.917454,-110.03229,12200.455
28.930603,-110.00831,12201.37
28.94387,-109.984314,12202.624
28.95737,-109.96296,12203.418
28.970842,-109.939705,12204.157
28.984474,-109.91772,12204.308
28.998037,-109.894165,12204.103
29.011696,-109.8716,12203.03
29.025085,-109.844795,12202.121
29.038273,-109.81669,12201.774
29.05135,-109.78915,12202.038
29.064417,-109.7637,12202.534
29.077457,-109.7378,12203.581
29.09053,-109.71298,12205.053
29.103718,-109.68949,12206.709
29.117073,-109.66821,12207.942
29.130255,-109.64252,12209.975
29.143686,-109.62119,12211.616
29.157145,-109.59973,12212.79
29.170908,-109.58119,12212.382
29.18454,-109.55822,12211.201
29.19778,-109.52947,12210.655
29.210861,-109.50168,12210.586
29.223913,-109.47649,12210.387
29.237293,-109.45638,12208.587
29.250505,-109.430855,12206.39
29.263397,-109.40022,12205.182
29.276194,-109.37169,12204.566
29.28897,-109.345245,12204.193
29.301249,-109.31144,12206.55
29.313873,-109.286446,12209.852
29.326908,-109.26735,12212.742
29.34047,-109.2517,12214.117
29.354387,-109.23553,12213.539
29.367859,-109.20846,12213.491
29.381216,-109.18217,12213.643
29.394571,-109.159,12213.063
29.40778,-109.13356,12212.265
29.421131,-109.11065,12210.427
29.434023,-109.08033,12209.504
29.446705,-109.049446,12209.915
29.459476,-109.02395,12210.512
29.472189,-108.997215,12211.911
29.48493,-108.97043,12214.456
29.498135,-108.9514,12216.16
29.511454,-108.93072,12217.313
29.524954,-108.909904,12217.691
29.538477,-108.88734,12217.454
29.551893,-108.86287,12216.859
29.565481,-108.84145,12214.782
29.578753,-108.81464,12212.382
29.591866,-108.78659,12209.869
29.604797,-108.75867,12207.166
29.617626,-108.73085,12204.255
29.629955,-108.696465,12203.142
29.642153,-108.66412,12203.801
29.65445,-108.63703,12205.381
29.667158,-108.61501,12206.833
29.680042,-108.59232,12208.418
29.693052,-108.56912,12210.297
29.706484,-108.55087,12210.94
29.719656,-108.52585,12211.943
29.732544,-108.49707,12214.392
29.745516,-108.472305,12217.444
29.75856,-108.44988,12220.671
29.772177,-108.434074,12222.203
29.78635,-108.42239,12220.261
29.800314,-108.4015,12216.3955
29.812704,-108.36193,12215.081
29.824162,-108.332794,12213.318
29.83456,-108.3128,12208.125
29.843206,-108.27959,12202.544
29.85047,-108.23756,12199.083
29.856998,-108.19727,12197.942
29.863026,-108.15786,12199.902
29.869211,-108.124954,12204.33
29.87577,-108.09773,12210.608
29.88293,-108.076775,12217.612
29.890757,-108.060776,12224.085
29.899343,-108.0502,12228.128
29.90844,-108.039246,12228.838
29.917225,-108.01777,12227.945
29.925116,-107.983864,12228.224
29.932335,-107.94818,12230.292
29.939318,-107.91722,12233.412
29.94701,-107.900154,12234.043
29.954576,-107.87579,12233.885
29.96218,-107.84895,12233.303
29.969322,-107.81686,12233.592
29.976465,-107.78802,12233.993
29.983776,-107.763336,12233.414
29.990765,-107.73188,12233.665
29.998009,-107.705765,12233.351
30.005302,-107.68026,12232.1875
30.012386,-107.64993,12231.351
30.019386,-107.61952,12230.907
30.026634,-107.59473,12229.306
30.03366,-107.565155,12227.722
30.040361,-107.5308,12227.519
30.047192,-107.50207,12227.428
30.053873,-107.47178,12228.083
30.060532,-107.44164,12229.736
30.067535,-107.41704,12231.094
30.075115,-107.399284,12230.128
30.082539,-107.37311,12228.612
30.089542,-107.339615,12228.294
30.096693,-107.3125,12227.498
30.103985,-107.288864,12225.162
30.11078,-107.2551,12223.858
30.117432,-107.22167,12223.69
30.123928,-107.18974,12224.603
30.130655,-107.163055,12225.523
30.138407,-107.15019,12222.551
30.14545,-107.118385,12220.144
30.152298,-107.08441,12218.754
30.158777,-107.050316,12218.606
30.164919,-107.01517,12220.476
30.17163,-106.99103,12221.907
30.178534,-106.967316,12222.872
30.185686,-106.94337,12223.317
30.192862,-106.917336,12223.573
30.19988,-106.88831,12224.326
30.206856,-106.86021,12225.376
30.213936,-106.8344,12226.14
30.22128,-106.81223,12225.505
30.228458,-106.78477,12224.597
30.235542,-106.75558,12223.709
30.242386,-106.72466,12223.273
30.248905,-106.69115,12224.178
30.25608,-106.67045,12223.164
30.263103,-106.64412,12221.502
30.26992,-106.6122,12220.546
30.276457,-106.57903,12220.723
30.28322,-106.55306,12220.323
30.289896,-106.52427,12220.143
30.296736,-106.497444,12219.678
30.303543,-106.4696,12219.15
30.309988,-106.43557,12220.288
30.31674,-106.40947,12221.233
30.323153,-106.377815,12223.659
30.329653,-106.34822,12227.4
30.33634,-106.32239,12231.815
30.343395,-106.3009,12235.943
30.350954,-106.28322,12238.629
30.358145,-106.25525,12242.339
30.366072,-106.23906,12243.706
30.37348,-106.21234,12245.068
30.380955,-106.18643,12245.981
30.387762,-106.15217,12248.628
30.394949,-106.12818,12250.49
30.402336,-106.10686,12250.76
30.409927,-106.08514,12249.15
30.41733,-106.05833,12246.476
30.424374,-106.026825,12243.632
30.431206,-105.99539,12240.454
30.438017,-105.966644,12236.139
30.44453,-105.93335,12231.761
30.450521,-105.89369,12229.104
30.456678,-105.86158,12226.522
30.462452,-105.824745,12225.609
30.468481,-105.79272,12225.548
30.474693,-105.76369,12225.867
30.480406,-105.724884,12229.542
30.487263,-105.70605,12231.77
30.494493,-105.68753,12232.285
30.501457,-105.65728,12233.8545
30.509552,-105.64462,12231.43
30.517145,-105.61924,12227.522
