Latitude,Longitude,Altitude (m)
-22.223427,167.03526,11578.183
-22.240602,167.02405,11577.711
-22.257656,167.01044,11577.454
-22.274794,166.9986,11577.179
-22.291945,166.98741,11576.724
-22.309015,166.97493,11576.348
-22.32613,166.96327,11575.942
-22.343168,166.95009,11575.702
-22.36024,166.93756,11575.52
-22.377329,166.92535,11575.287
-22.394499,166.91483,11574.773
-22.411547,166.90228,11574.338
-22.428587,166.88928,11574.09
-22.445673,166.8773,11573.818
-22.462795,166.86638,11573.345
-22.479864,166.85455,11572.851
-22.497017,166.84479,11572.097
-22.514082,166.83392,11571.296
-22.531082,166.8219,11570.691
-22.548052,166.80865,11570.397
-22.565193,166.79868,11569.842
-22.58228,166.7878,11569.149
-22.599392,166.77762,11568.337
-22.616537,166.76884,11567.241
-22.633516,166.75761,11566.307
-22.650564,166.74788,11565.363
-22.667524,166.73698,11564.498
-22.684475,166.72533,11563.823
-22.701542,166.71628,11562.917
-22.718513,166.70541,11562.037
-22.735521,166.69492,11561.178
-22.752476,166.68358,11560.456
-22.769358,166.66986,11560.149
-22.78643,166.65907,11559.707
-22.803532,166.64886,11558.996
-22.82051,166.63553,11558.55
-22.837557,166.62276,11558.292
-22.854576,166.60889,11558.235
-22.871574,166.5934,11558.532
-22.888678,166.57828,11558.999
-22.90584,166.56322,11559.509
-22.923122,166.5498,11559.779
-22.940445,166.53764,11559.681
-22.957735,166.52539,11559.363
-22.974854,166.51059,11559.321
-22.992088,166.4981,11559.207
-23.009336,166.48685,11558.796
-23.026474,166.47408,11558.407
-23.043682,166.4625,11557.929
-23.060808,166.4498,11557.522
-23.077873,166.43552,11557.422
-23.095047,166.42265,11557.326
-23.112276,166.4109,11557.012
-23.129519,166.39937,11556.521
-23.146727,166.38739,11556.006
-23.163887,166.37442,11555.628
-23.181114,166.36285,11555.172
-23.198364,166.35175,11554.558
-23.215502,166.3383,11554.173
-23.232687,166.32529,11553.923
-23.249928,166.31363,11553.54
-23.267088,166.30139,11553.092
-23.284126,166.28865,11552.68
-23.30106,166.2754,11552.345
-23.31786,166.26051,11552.285
-23.334732,166.24655,11552.257
-23.351616,166.23282,11552.172
-23.368546,166.21977,11551.935
-23.385513,166.20792,11551.448
-23.402441,166.19556,11550.855
-23.419264,166.18106,11550.555
-23.4361,166.16626,11550.533
-23.453022,166.15256,11550.496
-23.469934,166.13815,11550.487
-23.486883,166.12355,11550.552
-23.503902,166.10997,11550.504
-23.520931,166.09682,11550.284
-23.537935,166.08397,11549.945
-23.554924,166.07095,11549.554
-23.572044,166.06142,11548.658
-23.588886,166.04776,11548.013
-23.605831,166.0356,11547.444
-23.622614,166.02075,11547.227
-23.639566,166.009,11546.859
-23.656393,165.99524,11546.577
-23.673208,165.98051,11546.521
-23.690023,165.96556,11546.648
-23.706915,165.95166,11546.707
-23.723925,165.9406,11546.279
-23.740793,165.92775,11545.772
-23.757627,165.91446,11545.357
-23.774384,165.90034,11545.14
-23.79133,165.89061,11544.435
-23.808079,165.87807,11543.719
-23.824738,165.86363,11543.381
-23.841448,165.85005,11543.198
-23.858276,165.83904,11542.678
-23.874958,165.82556,11542.229
-23.891792,165.81493,11541.499
-23.908516,165.80365,11540.647
-23.925177,165.79118,11539.928
-23.941822,165.77861,11539.334
-23.95843,165.76509,11538.944
-23.975117,165.75293,11538.504
-23.991901,165.74239,11537.745
-24.008556,165.72984,11537.047
-24.025198,165.7168,11536.536
-24.04182,165.70338,11536.197
-24.058434,165.6892,11536.054
-24.075012,165.67323,11536.257
-24.091719,165.65878,11536.466
-24.108627,165.64815,11536.059
-24.125404,165.6359,11535.441
-24.142014,165.62022,11535.259
-24.15868,165.60567,11535.3125
-24.175543,165.59512,11534.842
-24.19229,165.58356,11534.1
-24.208868,165.56914,11533.685
-24.225508,165.55588,11533.396
-24.24215,165.54312,11533.052
-24.2588,165.53062,11532.61
-24.275415,165.5178,11532.161
-24.291971,165.50406,11531.863
-24.308598,165.49179,11531.459
-24.325235,165.48038,11530.8125
-24.341642,165.4649,11530.6
-24.358244,165.45251,11530.328
-24.374823,165.4402,11529.881
-24.391407,165.42838,11529.269
-24.407984,165.41708,11528.503
-24.424482,165.4048,11527.781
-24.44098,165.39297,11527.081
-24.457413,165.38017,11526.516
-24.47384,165.36693,11526.103
-24.490393,165.35616,11525.441
-24.506756,165.34181,11525.051
-24.523272,165.32982,11524.591
-24.539743,165.31732,11524.086
-24.556154,165.30347,11523.774
-24.572607,165.28973,11523.579
-24.589062,165.2758,11523.451
-24.605606,165.26337,11523.145
-24.622053,165.24911,11522.94
-24.638575,165.23618,11522.681
-24.655128,165.22417,11522.195
-24.671576,165.21045,11521.823
-24.687918,165.1938,11521.98
-24.704319,165.17738,11522.491
-24.72091,165.16331,11522.771
-24.737556,165.15025,11522.672
-24.754133,165.13622,11522.499
-24.7707,165.12201,11522.374
-24.78736,165.11008,11521.955
-24.803938,165.09743,11521.421
-24.820517,165.0851,11520.8125
-24.837015,165.07199,11520.305
-24.853456,165.05734,11520.078
-24.869955,165.04358,11519.943
-24.886463,165.02953,11519.829
-24.903086,165.0176,11519.424
-24.918781,164.98715,11521.442
-24.933018,164.91924,11530.684
-24.947866,164.8413,11545.995
-24.963682,164.75876,11564.759
-24.980412,164.66953,11585.696
-24.998268,164.58153,11607.292
-25.01686,164.494,11628.75
-25.035774,164.40364,11650.28
-25.05493,164.3109,11672.15
-25.074156,164.21411,11694.712
-25.093607,164.11678,11717.733
-25.113369,164.02237,11740.496
-25.133188,163.9269,11763.079
-25.153055,163.82991,11785.754
-25.17305,163.7343,11808.32
-25.193125,163.63971,11830.6045
-25.213179,163.54381,11852.841
-25.233198,163.44548,11875.398
-25.253351,163.34909,11897.942
-25.27365,163.25604,11919.94
-25.294,163.16573,11941.166
-25.314281,163.07625,11961.804
-25.334448,162.98653,11982.174
-25.35432,162.89107,12003.16
-25.374804,162.81464,12022.363
-25.396496,162.78911,12033.738
-25.417103,162.76476,12039.171
-25.437117,162.74947,12040.777
-25.455988,162.7339,12040.71
-25.47391,162.7164,12040.439
-25.491425,162.70413,12039.797
-25.50846,162.68965,12039.172
-25.525387,162.67802,12038.377
-25.54207,162.66423,12037.714
-25.558666,162.64911,12037.386
-25.5752,162.63199,12037.553
-25.591892,162.6183,12037.599
-25.608578,162.60417,12037.489
-25.625252,162.58932,12037.396
-25.64199,162.57591,12037.167
-25.658627,162.5599,12037.138
-25.67533,162.54459,12037.217
-25.692045,162.52994,12037.254
-25.708796,162.51625,12037.1045
-25.725588,162.50471,12036.572
-25.742296,162.49231,12035.87
-25.758951,162.47914,12035.224
-25.775606,162.46669,12034.575
-25.792202,162.45319,12034.021
-25.808807,162.43977,12033.555
-25.825386,162.42532,12033.25
-25.841965,162.40993,12033.155
-25.85868,162.39752,12032.838
-25.875366,162.38463,12032.344
-25.8919,162.36679,12032.384
-25.908594,162.35199,12032.516
-25.925255,162.33675,12032.627
-25.941948,162.32182,12032.667
-25.958689,162.30817,12032.511
-25.975365,162.29329,12032.355
-25.992075,162.27934,12032.142
-26.008768,162.26546,12031.868
-26.025434,162.25154,12031.56
-26.04216,162.23972,12030.9795
-26.058699,162.22403,12030.682
-26.07519,162.20555,12031.003
-26.091774,162.18808,12031.622
-26.108532,162.17415,12031.899
-26.125385,162.16298,12031.482
-26.142189,162.1526,12030.51
-26.158806,162.13927,12029.644
-26.175344,162.12447,12029.146
-26.191883,162.1105,12028.819
-26.208542,162.10043,12028.054
-26.2251,162.08907,12027.058
-26.241526,162.07434,12026.406
-26.258118,162.06416,12025.532
-26.274576,162.05186,12024.64
-26.290918,162.03542,12024.322
-26.307472,162.02386,12023.855
-26.32395,162.011,12023.275
-26.340225,161.99089,12023.569
-26.356747,161.9746,12024.105
-26.373278,161.95836,12024.58
-26.389877,161.94215,12024.966
-26.406593,161.92868,12024.956
-26.423254,161.91463,12024.707
-26.439943,161.90242,12024.164
-26.45658,161.89043,12023.3955
-26.473137,161.87775,12022.615
-26.489586,161.86238,12022.204
-26.50593,161.8436,12022.511
-26.522425,161.82674,12023.065
-26.539064,161.81306,12023.241
-26.555666,161.79797,12023.239
-26.572311,161.78362,12023.11
-26.58892,161.76929,12022.883
-26.60558,161.7575,12022.319
-26.622091,161.74278,12021.851
-26.638657,161.72964,12021.3545
-26.655268,161.71855,12020.539
-26.672009,161.71255,12018.866
-26.688366,161.69868,12017.562
-26.704502,161.67781,12017.662
-26.72107,161.66583,12017.639
-26.73746,161.64992,12017.644
-26.754051,161.63663,12017.43
-26.770452,161.61807,12017.68
-26.787033,161.60239,12017.987
-26.803667,161.58858,12017.967
-26.820097,161.56964,12018.334
-26.836615,161.55121,12019.032
-26.853222,161.53442,12019.666
-26.86981,161.51645,12020.3125
-26.886545,161.5013,12020.64
-26.903402,161.49048,12020.161
-26.920176,161.48009,12019.063
-26.93678,161.46753,12017.971
-26.953243,161.45248,12017.306
-26.96983,161.44131,12016.499
-26.986437,161.43204,12015.228
-27.002878,161.41911,12014.105
-27.019276,161.40416,12013.464
-27.035748,161.39082,12012.949
-27.05236,161.38097,12011.977
-27.068842,161.36874,12010.927
-27.085333,161.35649,12009.937
-27.101894,161.3467,12008.69
-27.118221,161.33195,12007.85
-27.13436,161.31046,12008.238
-27.150503,161.28694,12009.741
-27.166838,161.26953,12010.994
-27.182987,161.2528,12011.624
-27.198765,161.23386,12012.098
-27.214489,161.22313,12011.47
-27.22975,161.21286,12009.879
-27.244425,161.19594,12008.63
-27.25906,161.18195,12007.485
-27.27341,161.16498,12006.683
-27.287743,161.14778,12006.195
-27.301493,161.11485,12007.829
-27.31531,161.07565,12011.857
-27.329727,161.04388,12016.303
-27.344276,161.00964,12020.803
-27.359552,160.98851,12023.656
-27.374744,160.96762,12025.121
-27.389624,160.94096,12026.642
-27.404634,160.91943,12027.874
-27.419561,160.90044,12028.518
-27.434404,160.88216,12028.685
-27.44931,160.8686,12028.035
-27.464165,160.85852,12026.42
-27.478756,160.84644,12024.499
-27.493439,160.83997,12021.85
-27.50779,160.83034,12019.098
-27.521904,160.8163,12017.009
-27.535912,160.79901,12015.867
-27.550182,160.78668,12014.702
-27.564259,160.76796,12014.076
-27.578955,160.76186,12012.323
-27.593254,160.74854,12010.441
-27.607555,160.73372,12008.957
-27.62173,160.7156,12008.194
-27.635906,160.69553,12008.15
-27.650501,160.68379,12007.438
-27.664925,160.66856,12006.47
-27.679657,160.66037,12004.598
-27.693943,160.64418,12003.069
-27.707918,160.61847,12003.235
-27.722797,160.6137,12001.981
-27.737272,160.60374,11999.832
-27.751026,160.57318,11999.994
-27.765589,160.55829,12000.195
-27.779844,160.53773,12000.488
-27.794197,160.5153,12001.189
-27.808784,160.4964,12001.7
-27.823465,160.47987,12001.658
-27.838356,160.4694,12000.468
-27.852964,160.45541,11998.947
-27.867422,160.43971,11997.671
-27.881739,160.42224,11996.871
-27.895855,160.39961,11997.029
-27.910196,160.37994,11997.47
-27.92473,160.36392,11997.424
-27.9392,160.3457,11997.224
-27.953705,160.32765,11997.011
-27.968056,160.30623,11997.241
-27.98242,160.2839,11997.935
-27.996971,160.26515,11998.415
-28.011482,160.2454,11998.748
-28.026007,160.22572,11999.025
-28.040514,160.20622,11999.2705
-28.055231,160.19264,11998.729
-28.069654,160.1747,11998.14
-28.08393,160.15314,11998.204
-28.098352,160.1347,11998.329
-28.112854,160.11934,11997.971
-28.12717,160.10014,11997.731
-28.141665,160.0847,11997.231
-28.155966,160.06621,11996.859
-28.170166,160.04437,11997.085
-28.184355,160.02065,11997.998
-28.198912,160.00447,11998.315
-28.213366,159.98698,11998.185
-28.2278,159.96884,11997.941
-28.242199,159.95113,11997.663
-28.256495,159.93167,11997.592
-28.270811,159.91273,11997.612
-28.285072,159.89262,11997.822
-28.299564,159.87761,11997.512
-28.313643,159.85359,11997.887
-28.327911,159.83203,11998.637
-28.342403,159.81624,11998.741
-28.356667,159.79572,11998.87
-28.371258,159.7829,11998.215
-28.385572,159.76677,11997.319
-28.400063,159.75633,11995.74
-28.414131,159.7386,11994.573
-28.428173,159.71997,11994.039
-28.442276,159.70233,11993.739
-28.456312,159.68181,11993.85
-28.470663,159.66692,11993.512
-28.484896,159.64952,11993.049
-28.499214,159.6334,11992.432
-28.51342,159.61528,11991.973
-28.527653,159.59761,11991.613
-28.541859,159.57948,11991.361
-28.556025,159.55977,11991.361
-28.570122,159.5375,11991.882
-28.58446,159.51965,11992.148
-28.598787,159.50238,11992.039
-28.613039,159.48338,11991.92
-28.627357,159.4665,11991.611
-28.641653,159.45045,11991.028
-28.65575,159.43098,11990.743
-28.669725,159.40791,11991.213
-28.683865,159.38745,11991.852
-28.697992,159.36601,11992.56
-28.712248,159.34583,11993.138
-28.726582,159.32751,11993.36
-28.741016,159.31273,11992.881
-28.75536,159.29794,11991.94
-28.769646,159.28413,11990.69
-28.783957,159.27367,11988.863
-28.797796,159.25488,11987.724
-28.811768,159.23854,11986.967
-28.825575,159.2187,11986.767
-28.839367,159.1962,11987.268
-28.853247,159.17319,11988.239
-28.86734,159.15295,11989.068
-28.881382,159.13033,11989.984
-28.895422,159.10612,11991.203
-28.909973,159.09389,11991.1
-28.924362,159.08191,11989.845
-28.93825,159.06047,11989.256
-28.95222,159.04129,11989.158
-28.966345,159.02727,11988.582
-28.980143,159.00656,11988.393
-28.994165,158.98947,11988.191
-29.008173,158.97292,11987.775
-29.022095,158.9544,11987.469
-29.03607,158.93657,11987.212
-29.050137,158.92146,11986.614
-29.064207,158.90727,11985.614
-29.077963,158.88612,11985.289
-29.091799,158.86504,11985.569
-29.105627,158.84248,11986.315
-29.119686,158.82301,11986.897
-29.133951,158.80754,11986.723
-29.147957,158.78683,11986.685
-29.162117,158.76881,11986.584
-29.17602,158.74547,11987.068
-29.190313,158.72995,11987.017
-29.20448,158.7132,11986.561
-29.218975,158.7046,11984.883
-29.23316,158.69272,11982.763
-29.247326,158.68246,11980.392
-29.261251,158.66962,11978.249
-29.274967,158.65268,11976.878
-29.288853,158.63857,11975.661
-29.30252,158.61954,11975.032
-29.316032,158.59526,11975.491
-29.329786,158.57686,11975.841
-29.3434,158.55862,11975.786
-29.356543,158.53253,11976.439
-29.369877,158.51262,11976.899
-29.383083,158.49368,11976.859
-29.395874,158.46652,11977.549
-29.40878,158.44093,11978.731
-29.421736,158.41698,11979.869
-29.434763,158.39363,11980.785
-29.447811,158.36993,11981.597
-29.460844,158.346,11982.404
-29.47376,158.31949,11983.548
-29.486814,158.29547,11984.627
-29.499798,158.27025,11985.726
-29.512863,158.24661,11986.671
-29.52619,158.22969,11986.621
-29.53901,158.2032,11987.0625
-29.551685,158.17183,11988.761
-29.564764,158.14851,11990.253
-29.577892,158.12704,11991.045
-29.590826,158.1,11992.09
-29.603872,158.0743,11993.327
-29.61697,158.05055,11994.38
-29.629887,158.02242,11995.8
-29.642878,157.99492,11997.491
-29.65602,157.97029,11998.922
-29.66917,157.94633,12000.012
-29.682205,157.91994,12001.212
-29.695524,157.9007,12001.648
-29.708736,157.88226,12001.362
-29.721357,157.85179,12002.26
-29.734089,157.8219,12004.176
-29.747116,157.79837,12005.743
-29.760212,157.77626,12006.623
-29.773705,157.76433,12005.795
-29.786781,157.74756,12004.416
-29.799782,157.7318,12002.874
-29.812555,157.71477,12001.482
-29.825117,157.69492,12000.623
-29.8378,157.67767,11999.808
-29.850359,157.65828,11999.166
-29.862848,157.63629,11999.018
-29.87558,157.6186,11998.639
-29.888096,157.59624,11998.568
-29.900854,157.57819,11998.264
-29.913372,157.55548,11998.276
-29.926,157.53389,11998.464
-29.938604,157.51173,11998.77
-29.95129,157.49095,11998.965
-29.963919,157.46877,11999.221
-29.976603,157.447,11999.487
-29.989376,157.42784,11999.425
-30.002216,157.4114,11998.737
-30.01491,157.39293,11997.914
-30.027563,157.37454,11997.125
-30.040228,157.35762,11996.194
-30.052588,157.3344,11995.953
-30.06534,157.31941,11995.245
-30.077852,157.30086,11994.4375
-30.090364,157.28226,11993.717
-30.102718,157.26024,11993.504
-30.115396,157.2452,11992.759
-30.128012,157.23083,11991.4
-30.140396,157.2123,11990.245
-30.152643,157.19044,11989.825
-30.165087,157.17268,11989.379
-30.177313,157.15025,11989.353
-30.189453,157.12315,11990.2705
-30.201765,157.09702,11991.68
-30.21428,157.07318,11992.94
-30.227098,157.05554,11993.1875
-30.239555,157.03015,11993.667
-30.25203,157.00388,11994.698
-30.264668,156.98145,11995.569
-30.277422,156.96239,11995.748
-30.290133,156.9434,11995.423
-30.30261,156.92006,11995.443
-30.315237,156.90018,11995.394
-30.327787,156.8797,11995.257
-30.340336,156.85875,11995.152
-30.35276,156.83466,11995.489
-30.36541,156.81473,11995.636
-30.37812,156.79651,11995.27
-30.390585,156.7729,11995.286
-30.403147,156.74985,11995.631
-30.415815,156.72893,11995.841
-30.428288,156.70262,11996.574
-30.441055,156.68033,11997.214
-30.453955,156.66109,11997.248
-30.466541,156.6347,11997.769
-30.479507,156.61539,11997.887
-30.492327,156.59465,11997.736
-30.505201,156.57492,11997.354
-30.518032,156.55505,11996.874
-30.530697,156.53183,11996.811
-30.54339,156.50815,11997.141
-30.55606,156.48318,11997.831
-30.56892,156.46088,11998.362
-30.581633,156.4344,11999.235
-30.594418,156.40755,12000.446
-30.607248,156.38084,12001.814
-30.620394,156.36026,12002.434
-30.633469,156.33978,12002.416
-30.646326,156.31575,12002.575
-30.659267,156.29474,12002.611
-30.672,156.27126,12002.8125
-30.684908,156.25198,12002.651
-30.697458,156.22581,12003.058
-30.71011,156.20023,12003.922
-30.722979,156.17952,12004.37
-30.735882,156.1605,12004.169
-30.748964,156.1467,12002.895
-30.761414,156.12132,12002.4375
-30.77394,156.09645,12002.8
-30.786587,156.07426,12003.226
-30.79917,156.04997,12003.785
-30.811953,156.02888,12004.063
-30.824642,156.00568,12004.34
-30.837395,155.98355,12004.549
-30.85001,155.9583,12005.095
-30.862804,155.9368,12005.455
-30.87563,155.9167,12005.384
-30.888363,155.89545,12005.179
-30.900976,155.87222,12005.239
-30.913647,155.85017,12005.378
-30.926245,155.82675,12005.683
-30.938898,155.8039,12006.029
-30.95163,155.78267,12006.154
-30.964317,155.76076,12006.197
-30.976946,155.73769,12006.375
-30.989729,155.71892,12006.124
-31.002306,155.69666,12005.949
-31.014605,155.66751,12006.829
-31.027323,155.64653,12007.469
-31.040129,155.62918,12007.179
-31.052723,155.60786,12006.77
-31.065313,155.58694,12006.441
-31.077839,155.56577,12006.198
-31.090403,155.54645,12005.792
-31.102861,155.52544,12005.434
-31.11526,155.50334,12005.335
-31.127537,155.47807,12005.8
-31.139847,155.4525,12006.701
-31.152346,155.43,12007.413
-31.164982,155.41043,12007.476
-31.177551,155.39087,12007.119
-31.19005,155.37088,12006.633
-31.202394,155.34877,12006.403
-31.214655,155.32506,12006.606
-31.227242,155.30873,12006.139
-31.239634,155.28926,12005.437
-31.251518,155.25726,12006.35
-31.263763,155.22977,12007.994
-31.27609,155.20311,12009.691
-31.288828,155.1836,12010.338
-31.301498,155.16327,12010.259
-31.314148,155.14369,12009.794
-31.326422,155.11743,12010.033
-31.338818,155.09377,12010.583
-31.35142,155.07568,12010.462
-31.363947,155.05713,12009.813
-31.376339,155.03604,12009.281
-31.388535,155.0111,12009.444
-31.400913,154.98988,12009.615
-31.4132,154.96725,12009.815
-31.425585,154.94586,12009.908
-31.4381,154.9277,12009.475
-31.450472,154.90755,12008.916
-31.462734,154.88576,12008.617
-31.475,154.86421,12008.503
-31.487297,154.84341,12008.369
-31.499563,154.82217,12008.244
-31.511938,154.80354,12007.793
-31.524246,154.78462,12007.123
-31.536493,154.76527,12006.435
-31.548506,154.74109,12006.388
-31.560478,154.71455,12007.137
-31.572674,154.69176,12007.883
-31.584839,154.66737,12008.621
-31.597214,154.64633,12008.963
-31.609657,154.62733,12008.694
-31.62211,154.61038,12007.789
-31.634338,154.59023,12006.962
-31.646324,154.56517,12006.973
-31.65832,154.5393,12007.695
-31.670624,154.51955,12007.99
-31.682926,154.49988,12007.782
-31.695011,154.47449,12008.032
-31.707272,154.4523,12008.334
-31.719513,154.4304,12008.516
-31.731773,154.40877,12008.567
-31.744127,154.38994,12008.193
-31.756319,154.3688,12007.817
-31.76845,154.34666,12007.679
-31.780645,154.32658,12007.429
-31.792913,154.30911,12006.714
-31.804943,154.28697,12006.274
-31.816849,154.26158,12006.597
-31.828985,154.2401,12006.903
-31.841135,154.21901,12006.973
-31.853249,154.19633,12007.082
-31.865372,154.17343,12007.311
-31.877655,154.1545,12007.096
-31.889868,154.13515,12006.555
-31.901943,154.1132,12006.215
-31.913818,154.08673,12006.695
-31.925762,154.06049,12007.721
-31.937796,154.03473,12008.902
-31.949791,154.00645,12010.412
-31.962294,153.98773,12010.903
-31.974403,153.96202,12011.426
