Latitude,Longitude,Altitude (m)
22.904541604331325,120.2749441916981,18.69478462469578
22.904543520227314,120.27494648392693,18.697174609720708
22.90454542109131,120.27494876135424,18.699568112015726
22.90454730874537,120.27495102336331,18.701956924617292
22.904549181822954,120.27495327057089,18.704347495853902
22.904551041690603,120.27495550266859,18.706738653302196
22.904552886526254,120.27495771934807,18.709127465903762
22.90455471769646,120.27495992076348,18.711515106081965
22.904556534290187,120.2749621073774,18.71390684974194
22.904558336762946,120.27496427811053,18.71629507613182
22.90456012511474,120.27496643342543,18.718682716310028
22.90456189889006,120.27496857332211,18.72107094269991
22.904563658088897,120.27497069780054,18.72346034151316
22.90456540316677,120.27497280670656,18.72584622305632
22.904567133668166,120.27497490004016,18.72823327702284
22.904568849593083,120.27497697749298,18.730621503412724
22.904570550486003,120.27497903906502,18.733006212532523
22.904572236802444,120.27498108506464,18.73539209407568
22.904573908542407,120.27498311472094,18.737780320465568
22.904575565250376,120.27498512865064,18.740165029585363
22.904577207381866,120.27498712654537,18.742547980070118
22.90457883448136,120.27498910809678,18.74493562024832
22.904580446093345,120.27499107392158,18.74731739830971
22.90458204312885,120.27499302324888,18.749700348794462
22.904583625132364,120.27499495623286,18.752086816549305
22.90458519164837,120.27499687302767,18.754468594610692
22.904586743132377,120.27499877363336,18.756850958883764
22.904588280039906,120.27500065727898,18.759236254215242
22.904589801004413,120.2750025244271,18.76161685985327
22.904591306025893,120.27500437569442,18.763996879279617
22.904592797381927,120.27500620969333,18.76638100218773
22.90459427142839,120.2750080275031,18.76876160782576
22.90459573089837,120.27500982819862,18.771141627252103
22.904597175336363,120.27501161224245,18.77352106046677
22.9045986029203,120.27501337886369,18.775902838528157
22.904600015927755,120.27501512914158,18.77828168553114
22.90460141253667,120.27501686215106,18.78065877389908
22.90460279365808,120.27501857820049,18.78304055196047
22.90460415838095,120.27502027728984,18.78541822654009
22.90460550807182,120.27502195880243,18.787793556272987
22.904606841364156,120.27502362320077,18.790174748122695
22.904608159168983,120.2750252701765,18.79255007785559
22.90460945966424,120.27502690003799,18.794925993800167
22.904610745583017,120.27502851247688,18.79730542701483
22.904612014647743,120.27503010703062,18.799679584324362
22.904613267313927,120.27503168493266,18.802054327845575
22.904614504037088,120.2750332446412,18.804432588636878
22.904615724361708,120.27503478646457,18.806805573523047
22.904616928743305,120.27503631071116,18.80917973083258
22.90461811627085,120.2750378170726,18.811555646777155
22.904619287399854,120.27503930585726,18.813927459239963
22.9046204416748,120.2750407764484,18.81630103033781
22.904621580006726,120.2750422291544,18.818675187647344
22.904622701940113,120.27504366412941,18.821048172533516
22.904623806108415,120.27504508075673,18.823417640149597
22.904624894333693,120.27504647934471,18.825790038824085
22.90462596570492,120.275047859585,18.828162437498573
22.904627020222087,120.27504922147759,18.830533077538014
22.904628057885205,120.27505056517667,18.832901372730735
22.904629078238752,120.27505189083641,18.835274357616903
22.904630081738244,120.27505319737755,18.83764148038626
22.904631069294712,120.27505448572515,18.84001094800234
22.90463203863058,120.27505575557089,18.842381001830102
22.904632990656882,120.27505700660637,18.84474871081114
22.904633925829128,120.27505823914,18.847115833580496
22.904634843691806,120.27505945286336,18.849485301196577
22.90463574470043,120.27506064746811,18.85185125154257
22.90463662748845,120.27506182326262,18.8542160294652
22.904637492966906,120.2750629800927,18.8565849108696
22.90463834159131,120.2750641184209,18.85894968879223
22.904639172450622,120.27506523716794,18.86131388050318
22.904639985544854,120.27506633679637,18.863679244637492
22.904640781785034,120.27506741792293,18.8660446087718
22.9046415593491,120.27506847946833,18.868407041847707
22.904642319603592,120.27506952081583,18.870770647346976
22.904643062093005,120.27507054412402,18.873135425269606
22.904643786361817,120.27507154754267,18.875496685922148
22.90464449332106,120.27507253091763,18.877859118998053
22.904645182059703,120.27507349548233,18.88022155207396
22.904645853033266,120.27507443969496,18.882581640303137
22.90464650533071,120.27507536478899,18.884941142320635
22.904647140318588,120.27507627030187,18.88730416160822
22.90464775663035,120.27507715592522,18.88966307741404
22.904648355177027,120.27507802150485,18.892021993219856
22.904648935047593,120.27507886719498,18.89438384008408
22.90464949669756,120.27507969268721,18.89674041104317
22.90465004058244,120.2750804985983,18.899098740637303
22.904650565335693,120.27508128415731,18.90145765644312
22.904651071868347,120.27508204982679,18.90381364119053
22.9046515601804,120.27508279483585,18.906169039726258
22.90465202890531,120.27508351995539,18.908528541743756
22.904652480320653,120.27508422472286,18.910882767856123
22.904652911693336,120.2750849088299,18.91323699396849
22.90465332575645,120.27508557258486,18.9155929787159
22.904653719776903,120.27508621614193,18.917947791039946
22.904654096032274,120.27508683919277,18.92030025851727
22.904654453156017,120.27508744096643,18.922654484629632
22.90465479069261,120.27508802285057,18.92500812453032
22.904655109553097,120.27508858330337,18.927360005795958
22.904655409737465,120.2750891234041,18.929711887061597
22.90465569033469,120.27508964176512,18.9320649407506
22.9046559522558,120.27509014008243,18.934414477169515
22.904656195045284,120.2750906169684,18.936765186011794
22.904656417792108,120.27509107288557,18.939117653489117
22.904656621862816,120.27509150752559,18.941465431272984
22.904656806801896,120.2750919211968,18.94381379526854
22.90465697169832,120.2750923140534,18.94616567653418
22.904657117007595,120.27509268470774,18.948511695683006
22.904657244096274,120.27509303439328,18.950858887255194
22.90465734977575,120.27509336280166,18.95320900988579
22.904657437234626,120.27509366962451,18.955554442822937
22.904657504650842,120.27509395532438,18.9578992895484
22.9046575520244,120.27509421866782,18.960247653543952
22.904657579810813,120.27509446073408,18.962592500269416
22.904657588010082,120.27509468106065,18.964936174571516
22.904657575711177,120.2750948796475,18.96728102129698
22.904657544280642,120.27509505634046,18.969625281810764
22.904657492351937,120.27509521113953,18.9719677836895
22.904657420836084,120.27509534373634,18.97431028556824
22.904657329277576,120.2750954539767,18.976655132293704
22.904657216765376,120.27509554324828,18.978995875537397
22.904657084210516,120.27509560954668,18.98133603256941
22.904656932068516,120.2750956539512,18.98367912065983
22.904656758972823,120.2750956758451,18.98601869148016
22.90465656628999,120.27509567492,18.98835767608881
22.904656352653465,120.27509565271774,18.990697833120826
22.904656118974284,120.27509560738814,18.993036231517795
22.904655864796926,120.27509553985627,18.995374629914764
22.904655589210364,120.2750954496596,18.997714786946776
22.904655293581147,120.27509533664394,19.000050254285338
22.904654977453752,120.2750952008093,19.002386894047262
22.904654640828184,120.27509504246405,19.00472587865591
22.904654282337898,120.2750948612998,19.007060759782792
22.904653903804952,120.27509465731657,19.00939446848631
22.90465350431832,120.27509443036017,19.011731108248235
22.904653083877996,120.27509417996805,19.014065403163436
22.90465264202847,120.27509390706531,19.016398525655273
22.904652180136285,120.2750936104185,19.01873164814711
22.90465169637938,120.2750932909527,19.021065943062307
22.9046511921243,120.2750929486679,19.0233973069191
22.904650666004503,120.27509258233067,19.02572867077589
22.904650118931016,120.27509219317444,19.028061793267728
22.90464955090384,120.27509178011996,19.030390812277798
22.904648961011947,120.27509134393813,19.032721589922907
22.904648350166365,120.27509088370385,19.0350529537797
22.904647717911576,120.27509040018803,19.03737962794304
22.904647063792073,120.27508989308232,19.03970923316479
22.904646388263362,120.27508936207836,19.04203942459822
22.90464569041442,120.27508880763867,19.04436551254988
22.904644972522814,120.27508822883817,19.046692772924903
22.904644232766493,120.27508762660196,19.049020619511605
22.904643469778907,120.27508700000494,19.051344948828223
22.904642685837636,120.27508634920129,19.05366986435652
22.90464188003164,120.27508567434519,19.055999469578268
22.90464105236093,120.27508497574503,19.05832204025984
22.904640202369986,120.27508425278404,19.060644610941413
22.904639330969836,120.2750835049997,19.06296952646971
22.904638436793938,120.27508273362547,19.065291510939602
22.90463752075332,120.27508193758206,19.067614667832853
22.904636582847985,120.27508111717783,19.069936652302744
22.90463562307793,120.27508027148771,19.072258636772634
22.90463464007661,120.27507940174515,19.07457886260748
22.904633635210573,120.2750785073334,19.076899088442328
22.9046326080243,120.27507758825249,19.07922107291222
22.90463155806228,120.27507664419403,19.08153836768866
22.90463048578003,120.2750756754664,19.083856248676778
22.90462939117754,120.27507468176124,19.08617706072331
22.90462827425482,120.2750736632327,19.088493769288064
22.904627134556346,120.27507261941828,19.090809891641143
22.904625972082126,120.27507155062632,19.093128945052626
22.90462478683216,120.27507045670262,19.09544389498234
22.9046235774399,120.27506933718468,19.097758844912054
22.904622347549463,120.27506819284336,19.100076725900177
22.90462109397225,120.27506702337033,19.102389330983165
22.90461981716377,120.27506582845722,19.104702522277833
22.904618517124028,120.27506460702473,19.10701805841923
22.904617194308535,120.27506336107726,19.10933066350222
22.90461584826178,120.27506208953551,19.111641509950164
22.904614479439278,120.27506079209114,19.113954115033152
22.904613086929995,120.27505946843577,19.11626613390446
22.90461167210048,120.27505812011123,19.11857639414072
22.904610232673154,120.27505674480477,19.12088724058867
22.904608770925595,120.27505534482914,19.123198087036613
22.904607285035745,120.27505391802579,19.12550658863783
22.904605776370143,120.2750524653198,19.127813917815686
22.90460424401776,120.27505098640282,19.13012417805195
22.904602687978603,120.2750494815832,19.132430921018127
22.904601108252667,120.27504795086095,19.13473707777262
22.904599504384436,120.27504639346515,19.137044993162156
22.904597877740457,120.27504480924163,19.13935056370497
22.90459622649867,120.27504319957802,19.14165496182442
22.90459455248113,120.2750415629325,19.143961704790595
22.904592853410268,120.275039900076,19.146264344275
22.90459113110814,120.27503821023757,19.148566983759405
22.904589385119237,120.27503649357142,19.150873140513898
22.904587614532527,120.27503475069427,19.153174607574943
22.904585820259037,120.27503298129776,19.15547490221262
22.904584001387736,120.27503118461098,19.15777871412039
22.904582159285173,120.27502936125065,19.16008018118143
22.90458029167377,120.27502751060004,19.162380475819113
22.904578400375588,120.27502563358426,19.16467959803343
22.904576485390628,120.27502372850729,19.16698047888279
22.90457454489683,120.27502179691096,19.169278428673746
22.904572580716252,120.27501983817855,19.17157579225302
22.90457059148235,120.27501785215586,19.173874328255657
22.904568578106154,120.27501583822615,19.176170519411567
22.90456654013215,120.27501379762292,19.17846788299084
22.90456447756034,120.2750117297294,19.180766418993475
22.90456239039072,120.27500963315796,19.183059679090977
22.90456027862329,120.275007509913,19.185354111611844
22.904558141802536,120.2750053589152,19.1876520614028
22.90455597992846,120.2750031800104,19.18994297665358
22.904553793001057,120.27500097366114,19.19223506432772
22.904551581931365,120.27499873894233,19.19453066927195
22.90454934535283,120.27499647708744,19.196821584522727
22.904547083720974,120.27499418655462,19.199112499773506
22.904544797035793,120.274991868269,19.201405759871008
22.904542485297288,120.2749895216138,19.203695502698423
22.904540148049946,120.2749871472058,19.205984073102478
22.904537786204795,120.27498474442825,19.208274988353253
22.90453539839529,120.27498231328114,19.21056473118067
22.904532985076944,120.27497985391868,19.21285212916136
22.904530547160793,120.27497736649502,19.21513952714205
22.9045280837358,120.27497485008509,19.217428097546104
22.904525594346456,120.2749723053056,19.219711978256704
22.90452307944827,120.27496973200238,19.221999376237395
22.904520538585736,120.27496712971288,19.224285601794723
22.904517972669876,120.27496449951637,19.226569482505322
22.904515381245176,120.27496183956268,19.228853363215926
22.904512763400607,120.27495915108526,19.231139588773253
22.9045101200472,120.27495643392992,19.23342171084881
22.90450745072944,120.27495368809666,19.23570324671269
22.904504755447324,120.27495091219785,19.23798771363497
22.90450203465637,120.27494810792949,19.2402674908638
22.90449928744555,120.27494527467485,19.242547854304316
22.904496514725892,120.274942411663,19.244829976379872
22.904493715130847,120.2749395196649,19.247109167397024
22.90449088957145,120.27493659852632,19.249387185990813
22.9044880380477,120.27493364716801,19.251667549431325
22.904485159648562,120.27493066713178,19.253946154236797
22.90448225574059,120.27492765718418,19.25622241419554
22.904479325412748,120.27492461794193,19.258499260365966
22.904476367754008,120.27492154847995,19.260777865171434
22.904473384586428,120.27491844941497,19.26305119407177
22.90447037408795,120.27491532074697,19.265327454030515
22.90446733762512,120.2749121621676,19.26760430020094
22.904464274286905,120.27490897336848,19.269875284254553
22.90446118452882,120.27490575527472,19.27214861315489
22.904458067895355,120.27490250696123,19.274424286901954
22.904454924386503,120.27489922811962,19.276695270955564
22.90445175400227,120.27489591890411,19.278966255009177
22.904448557198165,120.27489258023977,19.281240756332878
22.90444533260765,120.2748892102764,19.283509395539763
22.90444208205278,120.27488581055586,19.28577744853497
22.90443880416701,120.27488237999884,19.288050191223622
22.904435498950342,120.27487891953045,19.290318244218827
22.904432166402778,120.27487542791722,19.29258395236731
22.904428806979826,120.2748719057759,19.29485376399756
22.90442542022598,120.27486835372319,19.29712123078108
22.904422006141232,120.27486476944638,19.299386352717878
22.904418565181103,120.27486115525821,19.301654991924764
22.904415095979044,120.27485751007937,19.303920700073245
22.9044115999016,120.27485383437244,19.306182890951636
22.90440807649326,120.27485012690394,19.308448012888434
22.904404525298506,120.27484638890733,19.31071313482523
22.904400946317338,120.27484261914917,19.312974739491942
22.904397340460786,120.27483881824618,19.315236344158652
22.904393706362306,120.27483498589,19.317500879883767
22.904390044477413,120.27483112285151,19.319759553492073
22.90438635435059,120.27482722805148,19.32201998573542
22.90438263689287,120.27482330164406,19.32428276282549
22.904378891648737,120.27481934393762,19.32653967779875
22.904375118162672,120.27481535446964,19.328798937618735
22.904371316890195,120.27481133370263,19.331060542285446
22.90436748828682,120.27480728071151,19.333315112411977
22.904363630530487,120.27480319565046,19.33557261359692
22.904359744532226,120.27479907944459,19.337831287205223
22.904355831203066,120.27479493086042,19.340086443543438
22.90435188917646,120.2747907505147,19.34234101366997
22.904347918907927,120.27478653779067,19.344596170008185
22.90434391994195,120.2747822933051,19.34685074013472
22.90433989318956,120.27477801628704,19.349102965414527
22.90433583773973,120.2747737068907,19.351355776906015
22.904331754047966,120.27476936542443,19.353609760820866
22.90432764074773,120.27476499173405,19.35586022746563
22.904323499661082,120.27476058489447,19.358111866533758
22.904319330332505,120.27475614629333,19.360363505601885
22.90431513185097,120.27475167500553,19.362611627399925
22.90431090467199,120.27474717056852,19.364860921621325
22.90430664788454,120.27474263359905,19.367112560689453
22.904302363310673,120.27473806378873,19.369358337640765
22.904298049583847,120.2747334609834,19.37160528701544
22.904293706704063,120.2747288256456,19.37385516744852
22.904289334671322,120.2747241570044,19.37609918576479
22.904284934852168,120.27471945521401,19.378344376504423
22.904280504057994,120.27471472042859,19.38059191209078
22.90427604502189,120.27470995264817,19.382834757983687
22.904271556832832,120.27470515171852,19.385078190088276
22.904267039035297,120.27470031686877,19.38732396703959
22.904262492995834,120.27469544871563,19.389563295662406
22.90425791643687,120.27469054756747,19.39180555534363
22.904253311180458,120.2746856124992,19.394047228813175
22.90424867631558,120.27468064381918,19.396288316071036
22.90424401184222,120.27467564198996,19.398527644693853
22.90423931776039,120.27467060593226,19.40076697331667
22.904234594070086,120.27466553595444,19.403007474362852
22.90422984077131,120.27466043267324,19.405244458138945
22.904225057408546,120.274655294701,19.40748202812672
22.904220244892823,120.27465012311703,19.409720770537856
22.904215401857595,120.27464491761293,19.411955995678905
22.90421052966941,120.27463967788037,19.41419122081995
22.90420562696172,120.2746344040735,19.41642937701941
22.904200695101075,120.27462909588397,19.418661084890367
22.904195733176437,120.2746237531576,19.42089396518469
22.904190740276782,120.27461837620274,19.42312919032574
22.90418571822417,120.27461296486523,19.425359725773337
22.904180665196538,120.27460751852833,19.42759201985598
22.90417558210492,120.27460203811712,19.42982548636198
22.904170469860343,120.27459652270653,19.432053676962855
22.904165326185232,120.27459097291329,19.43428245377541
22.90416015244613,120.27458538812064,19.436515334069732
22.90415494818753,120.27457976817442,19.43874176603556
22.90414971432045,120.27457411384555,19.44096937042475
22.904144448567326,120.27456842374636,19.44319756102562
22.90413915320573,120.27456269926452,19.445423406779767
22.90413382686911,120.27455693932075,19.447648666322234
22.904128470012992,120.2745511442234,19.449876270711425
22.904123082181854,120.27454531350992,19.45210211646557
22.90411766383121,120.27453944764287,19.45432444494963
22.90411221450555,120.27453354631389,19.456546773433686
22.904106734660388,120.27452760967715,19.458771446764473
22.904101223840204,120.27452163773266,19.46099260282517
22.904095682045003,120.27451562940114,19.4632125864625
22.9040901097303,120.27450958591604,19.46543550115824
22.90408450507403,120.27450350650645,19.46765489858389
22.904078869898264,120.27449739132656,19.469871951162816
22.904073204202987,120.27449123991383,19.47209486585856
22.904067506621665,120.2744850527308,19.474311332225803
22.90406177760981,120.27447882977745,19.476526626169683
22.90405601807845,120.27447257074544,19.47874660980702
22.904050226205527,120.27446627501804,19.4809619037509
22.904044403813103,120.27445994352033,19.483175439059735
22.904038549990144,120.27445357532723,19.48539073300362
22.904032664281136,120.27444717090128,19.4876060269475
22.90402674759711,120.27444072993411,19.489817217409612
22.904020798116004,120.27443425257991,19.49203075271845
22.904014817659885,120.27442773868451,19.494243115603926
22.904008805773227,120.27442118793951,19.49645430606604
22.904002762000523,120.27441460034494,19.498664324104787
22.90399668634177,120.27440797605497,19.5008755145669
22.903990579252483,120.27440131506961,19.503083187758925
22.903984439821635,120.27439461708049,19.50529086095095
22.903978268049222,120.27438788177925,19.5075008789897
22.903972064846275,120.27438110962842,19.509706207334997
22.903965829757283,120.27437430016546,19.511911535680298
22.90395956187121,120.2743674540071,19.51411920887232
22.903953262782363,120.27436057038246,19.516322778582577
