Latitude,Longitude,Altitude (m)
22.90367517472033,120.27310716330035,25.226541809082033
22.903668145427023,120.27311034925562,25.14786535507441
22.90366070086505,120.27311353501908,25.069205164372924
22.90365285074495,120.27311671493246,24.99056123697758
22.903644603063654,120.2731198840408,24.911926344752313
22.903635966389285,120.27312303674975,24.833309522867204
22.90362694986118,120.27312616778467,24.75469992911816
22.903617560905058,120.2731292716791,24.676104791641237
22.90360780808904,120.27313234299854,24.597524110436442
22.90359770083807,120.27313537666014,24.5189614995718
22.90358724686347,120.27313836716547,24.440398888707165
22.903576455018968,120.27314130863252,24.361857962250713
22.903565333587093,120.27314419652184,24.28332607096434
22.90355389170718,120.27314702482356,24.20480863595009
22.90354213737615,120.27314978848679,24.126307464241982
22.903530078590922,120.27315248214096,24.04780990660191
22.90351772449084,120.27315510035159,23.96932680523396
22.90350508392963,120.27315763768419,23.890856353104116
22.903492164618616,120.27316008896,23.81239312911034
22.903478975982736,120.27316244880846,23.73394797545672
22.903465525162098,120.27316471141147,23.655510049939156
22.903451822438456,120.27316687229357,23.57708115959168
22.903437875237525,120.27316892499731,23.498668532550337
22.90342369269864,120.2731708650472,23.420261326611044
22.903409282533122,120.27317268688091,23.34186676990986
22.9033946535947,120.2731743851918,23.263481248378756
22.903379814737107,120.27317595416176,23.185110183119775
22.903364774242874,120.27317738899565,23.10674273192883
22.903349541251334,120.27317868400326,23.028389737010006
22.903334123188202,120.27317983413369,22.950042163193228
22.903318528907207,120.2731808340803,22.871705431580544
22.903302767833296,120.27318167796109,22.79337773513794
22.903286847677784,120.27318236123664,22.715060880899433
22.9032707770088,120.27318287770524,22.636751254796984
22.90325456496568,120.27318322257175,22.558448856830598
22.90323821897414,120.27318339072133,22.480157301068306
22.903221748744723,120.27318337652771,22.40186935937405
22.90320516227435,120.27318317436459,22.32359225988388
22.90318846841676,120.2731827797565,22.245316967427733
22.903171674597658,120.2731821864378,22.167054324209694
22.903154791098807,120.27318138974118,22.08880071616173
22.903137825060305,120.27318038429613,22.01054710811377
22.903120785335894,120.2731791646042,21.93230795633793
22.903103681064906,120.2731777252309,21.85406699752808
22.903086519958663,120.27317606144503,21.775835073888302
22.903069310870894,120.27317416717274,21.69760676431656
22.903052062369728,120.27317203793856,21.619383875846864
22.903034783023298,120.27316966811621,21.54117002254725
22.903017481399733,120.27316705207937,21.46295616924763
22.903000164924745,120.2731641853526,21.384744122982028
22.902982844165688,120.27316106179809,21.30653930485249
22.902965526262676,120.2731576767486,21.228336293756964
22.902948219783838,120.2731540245778,21.150135089695457
22.90293093386851,120.27315010036273,21.071939306735995
22.902913676228007,120.27314589854097,20.993741716742516
22.90289645514486,120.2731414141256,20.915547740817072
22.902879280044,120.27313664155426,20.837353764891628
22.90286215949357,120.2731315760318,20.75915617489815
22.902845101204875,120.27312621221964,20.680965813040736
22.902828113460448,120.27312054436361,20.60277183711529
22.90281120568523,120.2731145678284,20.524574247121812
22.902794385876135,120.27310827724345,20.446373043060305
22.902777662315696,120.27310166730216,20.36817545306683
22.90276104385764,120.27309473282575,20.28996521383524
22.902744538498894,120.27308746869942,20.211762202739717
22.90272815452198,120.27307986942473,20.133550156474115
22.902711901066237,120.27307193033444,20.05532726800442
22.902695594773697,120.27306338021538,20.109173267602923
22.90267963406237,120.27305513698529,20.104637612223627
22.90266381329716,120.27304709687736,20.099108088135722
22.902648112485757,120.27303944738158,20.067992769420147
22.902632439663577,120.27303193087103,20.04851836383343
22.902616723429542,120.27302428812041,20.029425242424015
22.902600663327917,120.27301607743335,20.101674076437952
22.9025841865296,120.27300789590075,20.132852641344073
22.902566772663544,120.27299970707952,20.163098776698114
22.902548675346367,120.27299167863977,20.14322320955992
22.902532461875225,120.2729833277428,20.148320852518083
22.90252202303765,120.27297485025414,20.157654183208944
22.90252039195143,120.27296639501492,20.146634889781478
22.90252639535405,120.27295722005708,20.146640310883523
22.902536961571148,120.27294584850932,20.144352605819705
22.90254888355191,120.27293057761727,20.298387799382212
22.90256150240719,120.27291255735153,20.378399651527406
22.902574577658157,120.27289257296427,20.456814085602762
22.90258866737564,120.27287276081846,20.13563185966015
22.902601891426457,120.27285229878726,19.995013893663884
22.902613776278656,120.27283332596686,19.854301961898805
22.902623309750563,120.27281583166408,20.007413761079313
22.90263209465357,120.27280007945181,20.026118370175364
22.902641013219394,120.27278394497095,20.04375502216816
22.902651112187836,120.27276691920135,19.961439201653004
22.90266178150809,120.27274974791521,19.926200231313707
22.902672335729804,120.27273413473006,19.8917798473835
22.902681299135505,120.27272094021374,20.02035031759739
22.902686063586625,120.27271205938983,20.074973341822627
22.902682410136276,120.27270781065562,20.1285157597065
22.902667777484996,120.27270843284107,20.07365782105923
22.90264524958814,120.27271116920397,20.066597739160063
22.902621044908376,120.27271431323372,20.06053152596951
22.902600383150087,120.27271682224301,20.06174946689606
22.90258345024169,120.27271924103974,20.061814520120624
22.902568125571165,120.27272175677822,20.061716940283777
22.90255213487139,120.27272389581046,20.166492386579517
22.902535061160062,120.27272589695045,20.222257456302646
22.90251671708076,120.27272741299805,20.27748402988911
22.902497481630405,120.27272878885172,20.211830870032312
22.902477828769346,120.27272978737578,20.202376468062404
22.902459038718913,120.27273123538033,20.194082181930543
22.90244195986671,120.27273356767273,20.149177386641504
22.90242557674661,120.27273600195775,20.120631670296195
22.902408201722736,120.27273755858822,20.090418061554434
22.902388673242356,120.27273770399286,20.10694158059359
22.90236940351948,120.27273916772548,20.104153327107433
22.90235456666112,120.27274591253808,20.106274785041812
22.90234782668498,120.27276090304228,20.095999989628794
22.902348541838176,120.2727820357538,20.094006831109525
22.902353475081444,120.27280488538135,20.089939197540286
22.90235910048676,120.2728257567577,20.133083941698075
22.902363803104542,120.27284489251699,20.151336792290213
22.90236705913649,120.2728636400457,20.168259665846826
22.902368860300083,120.27288308107961,20.194380342543127
22.9023696964067,120.27290324544448,20.215228093981747
22.902370026708088,120.272923748602,20.23597284448147
22.902370261760435,120.27294432976046,20.244118953824046
22.90237067331625,120.27296465863061,20.25822646838427
22.90237153669808,120.27298447867243,20.272473124563696
22.90237303826275,120.27300377847347,20.239173101723196
22.9023746713482,120.2730228645391,20.2273424500227
22.902376018543734,120.27304258065423,20.21460647428036
22.90237675883011,120.27306326123195,20.215397955179217
22.902377221080688,120.27308409666074,20.20934439122677
22.9023778051415,120.27310389678674,20.203784147560597
22.90237871193519,120.27312204901475,20.21982699555159
22.9023796268686,120.27314010281452,20.22596549010277
22.902380116822798,120.27315998116524,20.230983623564246
22.902380053989848,120.27318233419204,20.283656858086587
22.902380518953667,120.27320382083288,20.314582438230516
22.902382232722335,120.27321940670171,20.347741512417794
22.902381829306247,120.2732197613503,22.98257961767912
22.902385441058364,120.27322115769522,24.40510028624535
22.902387128979843,120.27322014988455,25.8122376742363
22.902384723763138,120.2732177530176,27.55307461279631
22.90238327503527,120.2732168072241,29.140382327318193
22.902386979894395,120.27321530167787,30.743098620891573
22.902402782095326,120.27321923158318,29.700960419654848
22.90242226644984,120.27321438260928,29.97913523602486
22.90244871069581,120.27320976130864,30.17179758870602
22.902481944041867,120.27320696228924,30.05201111084223
22.902519165280914,120.27320192764749,30.06886170303822
22.902560104659692,120.27319530965035,30.072676351845267
22.902604121996127,120.27318736384686,30.04840969204903
22.902649671314087,120.27317850306662,30.032052420139316
22.902695282036976,120.27316973671869,30.010686049938204
22.90273964723946,120.27316151343639,30.07384008175135
22.902782974555883,120.27315407310464,30.094239688754083
22.902825371659063,120.27314680386348,30.117590182304387
22.902867294944688,120.27314000032638,29.942737956881526
22.902908166064034,120.27313259483931,29.8619490801096
22.902948382578295,120.27312529200022,29.77568308323622
22.90298803416723,120.2731181509172,29.6947677140832
22.90302710026733,120.273111065266,29.609838922381403
22.903065585448257,120.27310401420374,29.52434091496468
22.903103513415175,120.27309701272324,29.43824116522074
22.903140906159614,120.27309006926393,29.351902886986736
22.903177778247393,120.27308318766194,29.265280904412272
22.90321414081708,120.27307637172142,29.17843304258585
22.903249998723954,120.27306962291284,29.091380985915663
22.9032853516824,120.27306293596159,29.004103049993518
22.903320253100432,120.27305631815626,28.91672572720051
22.903354706119696,120.27304976770667,28.829247210502626
22.9033887113114,120.27304328314231,28.741676535069946
22.903422277814883,120.27303686641321,28.65402815717459
22.90345541077102,120.2730305189579,28.566305690884594
22.903488122746403,120.27302424758548,28.47856876832247
22.903520378897305,120.27301804750083,28.390763178467754
22.90355219007669,120.27301191979082,28.3029069916606
22.903583564852692,120.27300586634156,28.21501466417313
22.903614503225302,120.27299988657762,28.12708438897133
22.903645010335403,120.27299398113836,28.039123394191268
22.90367509132387,120.27298814912868,27.951138907969
22.903704751617187,120.27298239029285,27.86313815844059
22.903733992643378,120.27297670418331,27.775121145606043
22.903762817544088,120.27297108916973,27.687084255397323
22.903791226890522,120.27296554605128,27.59903652298451
22.903819224109938,120.2729600744124,27.510976141333582
22.903846810059143,120.27295467396536,27.422908531546597
22.90387398388133,120.27294934480608,27.33483550065756
22.90390074814693,120.27294408651898,27.2467480134964
22.90392710342716,120.27293889811305,27.158651491165163
22.90395305372048,120.2729337800039,27.070560389935974
22.903978599026882,120.2729287312005,26.982458446502687
22.90400374334483,120.27292375138317,26.89436192417145
22.904028488387954,120.27291884080769,26.806261787772183
22.904052835298668,120.27291399816336,26.718159844338896
22.904076786361806,120.27290922348216,26.630065129041675
22.904100344719016,120.27290451698785,26.54197041374445
22.904123511227112,120.2728998773378,26.453879312515262
22.904146288742137,120.27289530462792,26.365795439422133
22.90416867954892,120.27289079837868,26.277718794465066
22.904190685932306,120.27288635849419,26.189649377644063
22.904212309320307,120.27288198436705,26.10158899599314
22.90423355114095,120.27287767545383,26.013541263580326
22.904254415392693,120.2728734314668,25.925498952269557
22.904274903217953,120.27286925243794,25.8374692901969
22.904295016615965,120.27286513804759,25.749454084396366
22.904314757871553,120.27286108708095,25.66145152783394
22.904334129269564,120.27285709961797,25.573461620509626
22.90435313366603,120.27285317561066,25.485486169457438
22.90437177163217,120.27284931437175,25.39752698171139
22.904390046309626,120.27284551569343,25.30958225023747
22.904407959983228,120.27284177928802,25.22165197503567
22.90442551550903,120.2728381044522,25.133737963140014
22.90444271231581,120.27283449101016,25.045845635652544
22.904459556686874,120.27283093869019,24.957969571471217
22.904476046337383,120.27282744690086,24.870111577630045
22.904492185837007,120.27282401578606,24.78227165412903
22.90450797747058,120.27282064438673,24.694449800968172
22.904523422666124,120.2728173327828,24.606649632215504
22.904538523994077,120.27281408009516,24.518869340837004
22.90455328431048,120.27281088705908,24.431107119798664
22.90456770361534,120.2728077519323,24.343368390202524
22.904581787049526,120.27280467525829,24.255647730946542
22.904595534041835,120.2728016565735,24.16794875609875
22.90460894830512,120.27279869539845,24.080269658625127
22.904622031267408,120.2727957913495,23.992615859627726
22.90463478607034,120.27279294418689,23.904981938004497
22.904647213856336,120.27279015370284,23.817369700789452
22.90465931691023,120.272787419274,23.729782762050633
22.904671097516857,120.27278474045278,23.64221208661795
22.904682558246655,120.27278211743103,23.554664902627472
22.90469370138446,120.27277954969725,23.467141210079195
22.904704527501476,120.27277703658011,23.379642816007138
22.904715040596173,120.27277457785584,23.29216249227524
22.904725242953376,120.27277217338062,23.204709274053577
22.904735134287485,120.27276982280276,23.117277740240098
22.904744718596955,120.27276752546693,23.02986789083481
22.90475399816663,120.2727652816449,22.942481532871724
22.90476297528134,120.27276309050545,22.855116859316826
22.90477165051229,120.2727609517769,22.767775677204135
22.904780027857946,120.27275886571498,22.68045979356766
22.904788108746327,120.272756831009,22.59316559433937
22.904795894605453,120.27275484805858,22.505893079519275
22.90480338772016,120.2727529161764,22.418642249107364
22.904810592374513,120.27275103512272,22.33141671717167
22.90481750714049,120.27274920483359,22.244212869644166
22.90482413715897,120.2727474250053,22.15703432059288
22.904830483286766,120.27274569474281,22.069873841881755
22.904836547523104,120.27274401430182,21.982738661646845
22.904842331581612,120.27274238317085,21.89562697285414
22.904847838603942,120.2727408008704,21.80853696846962
22.90485307144613,120.27273926722464,21.721470455527307
22.90485802953697,120.27273778192988,21.63442201292515
22.904862718017345,120.27273634482628,21.547398868799213
22.90486713660164,120.27273495559416,21.460395602047445
22.904871287860303,120.27273361378599,21.373417633771897
22.904875175506188,120.27273231874642,21.286459542870524
22.904878799824896,120.27273107090701,21.19952132934332
22.90488216367247,120.27272986937268,21.11260841429234
22.904885269904963,120.27272871374383,21.025711762547495
22.90488811909357,120.27272760451596,20.93884040927887
22.90489071409434,120.27272654060216,20.851987126350405
22.90489305719211,120.27272552211433,20.765159141898156
22.90489515067171,120.27272454842908,20.678352841854096
22.904896995389954,120.27272361964233,20.59156280511618
22.904898595059702,120.27272273509877,20.50479264575243
22.904899951108973,120.27272189462252,20.41804597783089
22.904901064394576,120.2727210979419,20.3313173802495
22.90490193891498,120.27272034483313,20.24460866004229
22.9049025763838,120.27271963505643,20.157919817209248
22.90490297851467,120.27271896792452,20.071254465818406
22.904903146450007,120.27271834337346,19.984603570699694
22.904903084188266,120.2727177613553,19.897974359989167
22.90490279287187,120.27271722099091,19.811359605550766
22.90490227421444,120.27271672242418,19.724773763656618
22.904901530500812,120.27271626557516,19.638196956932546
22.904900564015822,120.27271584956476,19.551643641650678
22.904899376473097,120.27271547480855,19.465110203742984
22.90489797072868,120.27271514007577,19.378589415073396
22.90489634849619,120.27271484586194,19.292092117846014
22.90489451148926,120.27271459152769,19.205611083924772
22.904892461421515,120.27271437675334,19.119148120343688
22.904890201720207,120.27271420147498,19.032701420068744
22.904887734670165,120.27271406550078,18.946272790133953
22.904885060271397,120.27271396801557,18.859860423505307
22.90488218080873,120.27271390948289,18.773467934250835
22.90487910085184,120.27271388876788,18.6870917083025
22.904875819829513,120.27271390642998,18.60072993862629
22.904872342025815,120.27271396135033,18.51438623929024
22.904868667155146,120.27271405400842,18.428064224362377
22.904864800072772,120.2727141835891,18.341751244604588
22.904860739921883,120.27271434996449,18.25545633518696
22.904856491557755,120.27271455260713,18.16917768907547
22.904852053552364,120.27271479218834,18.08291711330414
22.904847431332193,120.2727150674294,17.99666918677092
22.904842626325262,120.27271537853811,17.91043933057785
22.90483763910278,120.27271572450749,17.824222123622896
22.904832473092,120.27271610613674,17.73802117997408
22.904827128578525,120.2727165223869,17.65183830666542
22.90482160984642,120.27271697314609,17.56566988962889
22.9048159177525,120.2727174584143,17.479512314796448
22.904810055438407,120.27271797750424,17.393372810304168
22.90480402376096,120.27271853049582,17.307245955049993
22.904797825290597,120.27271911710135,17.22113536310196
22.904791462026544,120.2727197368253,17.135037420392038
22.904784935396826,120.27272038904432,17.04895393395424
22.904778248257482,120.27272107422195,16.962884903788567
22.904771403750164,120.27272179176676,16.876832136929035
22.90476440158927,120.27272254129517,16.7907902122736
22.904757245487648,120.27272332266331,16.704764550924303
22.904749937444535,120.27272413579126,16.6187497317791
22.904742477745533,120.27272497976796,16.53274936890602
22.904734870960308,120.27272585488109,16.446765269339085
22.904727117088864,120.27272676057123,16.360793819010258
22.90471922012966,120.27272769719004,16.274833210885525
22.90471118093951,120.27272866318707,16.18888705903292
22.90470300180325,120.27272965971316,16.10295355641842
22.90469468386329,120.27273068544166,16.01703270304203
22.904686231118095,120.27273174064429,15.931128112971784
22.904677644710084,120.27273282476162,15.8452307510376
22.904668926352883,120.27273393776167,15.75935145944357
22.90466007833132,120.27273507938871,15.673483010053635
22.90465110293024,120.27273624895544,15.587627209901811
22.90464200243447,120.2727374468135,15.50178225195408
22.90463277798643,120.27273867184401,15.41595355731249
22.904623433298973,120.27273992475028,15.330135704874994
22.904613968086494,120.27274120436549,15.244330501675607
22.904604386633064,120.27274251096135,15.158536140680315
22.9045946903667,120.27274384464975,15.072756235957147
22.90458488042982,120.2727452038483,14.986987173438074
22.90457496110649,120.27274658961193,14.90123076015711
22.904564930968686,120.27274800075783,14.815488803148272
22.90455479544289,120.27274943765364,14.729754977792503
22.9045445542435,120.2727508995641,14.64403560870886
22.90453421136898,120.27275238664905,14.558327081829312
22.90452376767613,120.27275389793347,14.472633914738894
22.904513225735403,120.27275543404073,14.386950686335565
22.90450258811723,120.27275699394788,14.301279203653337
22.90449185624963,120.2727585778467,14.215617659658195
22.904481031560636,120.27276018530567,14.129971475452185
22.904470117191885,120.272761816069,14.04433613345027
22.904459114857005,120.27276346949738,13.95871163365245
22.904448026269623,120.27276514592643,13.87310339716077
22.90443685457139,120.27276684476477,13.787502388805152
22.904425600619113,120.2727685658366,13.701914933204652
22.90441426698323,120.27277030858245,13.616338319808246
22.90440285623419,120.27277207305029,13.530775259166957
22.90439137037121,120.27277385887248,13.445222137212754
22.90437981082232,120.27277566587323,13.359683471530678
22.904368179872353,120.27277749342912,13.274154744535686
22.904356479520537,120.27277934177995,13.188639570295813
22.90434471262292,120.27278121011054,13.103135238260032
22.90433288032191,120.27278309842086,13.017642651945353
22.90432098604477,120.27278500634333,12.932162714868785
22.904309029505885,120.27278693398979,12.84669361999631
22.90429701527493,120.27278888030534,12.761237174361945
