Latitude,Longitude,Altitude (m)
22.903287650142772,120.2734822893198,11.436590245366096
22.90328228780945,120.27348129038155,11.408239513635634
22.90327690494485,120.27348022617824,11.379893675446509
22.903271501548968,120.27347909567554,11.351550284028052
22.903266078932315,120.2734778989769,11.323211786150932
22.90326063683279,120.27347663525487,11.294878181815147
22.903255176036694,120.27347530388884,11.266544577479362
22.903249696194564,120.2734739044651,11.238218313455581
22.9032441986169,120.27347243636306,11.209895719587802
22.90323868286687,120.27347089906559,11.181578019261359
22.903233150429713,120.27346929236577,11.153259095549583
22.9032276006065,120.27346761512592,11.12494751214981
22.90322203453299,120.27346586708742,11.09664326906204
22.903216452209197,120.27346404788828,11.068339025974273
22.903210854159315,120.27346215654589,11.040037229657171
22.903205240470715,120.27346019331885,11.011741550266741
22.903199612104434,120.27345815686253,10.983449541032313
22.903193969235204,120.27345604691837,10.955162425339221
22.9031883122125,120.27345386312436,10.926875309646128
22.903182641385786,120.27345160491161,10.89859553426504
22.903176957279264,120.2734492715044,10.870319429039954
22.903171260067673,120.27344686238558,10.842045770585536
22.90316555036258,120.27344437714142,10.813777005672454
22.90315982860082,120.27344181530647,10.785511910915373
22.90315409486976,120.27343917651874,10.757251709699629
22.90314834978097,120.27343645969218,10.728993955254554
22.90314259403339,120.27343366472337,10.700741094350814
22.903136827364918,120.27343079094001,10.672490680217741
22.90313105082396,120.27342783792838,10.64424638301134
22.903125264235776,120.27342480486102,10.616004532575607
22.903119468474042,120.27342169184136,10.587768799066543
22.90311366380086,120.2734184977834,10.559534288942812
22.90310785021623,120.27341522227337,10.531304672360418
22.903102028506453,120.27341186458729,10.503077502548694
22.9030961992831,120.27340842467342,10.474857673048971
22.90309036228408,120.27340490175604,10.446641513705252
22.903084518645148,120.27340129516284,10.418425354361533
22.903078668191583,120.27339760468696,10.390218982100485
22.903072811622316,120.27339382960439,10.362012609839438
22.903066949286817,120.2733899695531,10.333813577890394
22.903061081359823,120.27338602365394,10.305614545941351
22.903055208627634,120.27338199159662,10.277422854304312
22.903049331002883,120.27337787307084,10.24923605620861
22.903043449446614,120.27337366714573,10.22105048149824
22.903037564046187,120.27336937361441,10.192871023714542
22.903031675151077,120.27336499206316,10.16469401270151
22.90302578311075,120.27336052156112,10.13652495369315
22.903019888624144,120.2733559619014,10.108357118070124
22.90301399160389,120.27335131230828,10.08019539937377
22.903008093011024,120.27334657252318,10.052035515755414
22.903002193020285,120.2733417418738,10.023882360756396
22.902996292155876,120.27333681999811,9.995734099298716
22.902990390155693,120.27333180648242,9.967589507997035
22.902984487980774,120.27332670018896,9.939448586851357
22.90297858633006,120.27332150111775,9.911311335861683
22.90297268494145,120.27331620890676,9.883182036876677
22.902966784601244,120.27331082257341,9.855053961277008
22.90296088557154,120.27330534216941,9.826934449374676
22.902954988376553,120.2732997665053,9.798816160857676
22.90294909319101,120.2732940956328,9.770703989267348
22.90294320080121,120.27328832867275,9.742596711218356
22.902937311119796,120.2732824655217,9.714495550096034
22.90293142493307,120.27327650524879,9.686395612359046
22.902925542241025,120.27327044764714,9.658304238319396
22.90291966409207,120.27326429209617,9.630215311050414
22.902913790136743,120.27325803807874,9.602134335786104
22.902907921161344,120.27325168492253,9.574055195599794
22.902902057602706,120.27324523242066,9.545984619110822
22.902896199810296,120.27323868010774,9.517917712777852
22.902890348220957,120.2732320272597,9.489855699986219
22.90288450309679,120.27322527351456,9.461801639199257
22.90287866496199,120.27321841820002,9.43375063687563
22.90287283416603,120.27321146100576,9.40570575147867
22.90286701105838,120.27320440141466,9.377665147930383
22.902861196163244,120.27319723885782,9.349633108079432
22.902855389830084,120.27318997292151,9.32160351499915
22.902849592321008,120.27318260298517,9.293582485616206
22.902843804334953,120.27317512868679,9.265565738081932
22.90283802622138,120.27316754940577,9.237556330859661
22.902832257892932,120.27315986488352,9.209551817178726
22.90282650048538,120.27315207429261,9.18155342042446
22.90282075391135,120.27314417758133,9.153562975674866
22.90281396583357,120.27313503395557,9.543924438208341
22.902805803295852,120.27312369371032,9.773148313164711
22.902793809665095,120.27310704444652,9.966430350393056
22.902774960727545,120.27308094581441,11.137213173508643
22.90275365078854,120.2730498983111,11.93034367263317
22.90272997848559,120.27301684320877,12.626288440823554
22.90270415869819,120.2729832925677,13.493075300753116
22.902677906181317,120.27294984414249,14.310133993625639
22.902652251168355,120.27291609912838,15.100536343455314
22.9026275728764,120.27288150745258,15.972063821554183
22.902602800839503,120.27284589718661,16.809150555729865
22.902576230743055,120.27280875090311,17.63540298938751
22.902547481360514,120.27277014034453,18.296845844388006
22.902518186413833,120.27273109730145,19.034187525510788
22.902490894533706,120.27269395920194,19.780615289509296
22.902469345383455,120.27266320582456,19.46311254054308
22.90245210695003,120.27263861114956,19.646582415699957
22.90244226169924,120.27262388215009,19.899552811682224
22.90244117959161,120.27262265549196,19.70595085918903
22.902442598128275,120.2726311247271,19.68802948743105
22.902442096859275,120.2726451289391,19.709868139028547
22.902436524975855,120.27266171383638,19.816443352401254
22.902426557280005,120.27268188032886,19.86477563679218
22.90241256665471,120.27270736924713,19.913697592914104
22.902394710797665,120.27273901630215,19.995315745472908
22.902374210031326,120.27277499422715,20.063906067609786
22.902352456026957,120.27281260836861,20.129037879407406
22.9023310175272,120.27285027692781,20.104049010574816
22.902311510518462,120.27288854015158,20.123002919554708
22.902295730745067,120.27292896379393,20.146774519979953
22.902284837787455,120.2729726217807,20.1380652397871
22.90227799187263,120.27301911918582,20.14221863299608
22.902274426637817,120.27306771370964,20.149569955468177
22.902274275885805,120.27311719735364,19.883997467160224
22.90227727373653,120.2731614748414,19.748994448781012
22.902284484671295,120.27319444011377,19.630171924829483
22.902295893597426,120.2732115662987,19.85221269279718
22.902312597606016,120.27321629268945,19.899315474927423
22.90233389297655,120.27321256730556,19.92807604074478
22.902359875791042,120.27320389992862,19.739381086826324
22.9023897069099,120.27319281443435,19.665360157191753
22.902423525771088,120.27318276930251,19.599876010417937
22.902460987711216,120.27317633086729,19.514987748861312
22.90250026802375,120.27317199963531,19.433235023915767
22.902539706645555,120.27316706829568,19.355539044737814
22.9025782293102,120.27315952624987,19.38651760816574
22.902617687764348,120.27315021439331,19.363278180360794
22.902659582451363,120.27314038217453,19.332155257463455
22.90270400353414,120.2731313369118,19.229464292526245
22.90274539275853,120.27312392948167,19.169219905138014
22.902777931516294,120.27311898355825,19.116597208380696
22.9027988130505,120.27311710716167,18.781465476751325
22.902811468749487,120.27311609803544,18.573556032776832
22.902821601634766,120.27311480530096,18.38284493982792
22.902831927819857,120.2731123472592,18.57909796833992
22.902843516285472,120.27311044867663,18.585684674978253
22.9028550525929,120.27310920615798,18.56839701682329
22.902866206232233,120.27310816677814,18.596389296650884
22.902877165130192,120.27310727478773,18.61769332885742
22.90288788175906,120.27310657073176,18.631953108310697
22.902898307018493,120.2731060864153,18.649048694968222
22.90290841373731,120.27310582245896,18.66672416627407
22.902918181209504,120.2731057685196,18.68362645804882
22.902927594233184,120.27310591497813,18.70058991909027
22.902936639266443,120.27310625138801,18.717692846059798
22.902945305912596,120.27310676756127,18.734776198863983
22.902953583774945,120.27310745072415,18.751820403337476
22.902961465077823,120.27310828893036,18.7688511505723
22.902968942657118,120.27310926987158,18.78586721718311
22.902976009436088,120.27311038237725,18.802899187803266
22.902982660434816,120.27311161579397,18.819943392276762
22.902988890935468,120.27311295993374,18.837004724144933
22.902994696657053,120.27311440497063,18.854081960022448
22.903000073056486,120.27311594087179,18.871176323294637
22.903005016988544,120.27311755750098,18.888298824429512
22.903009522687,120.2731192432222,18.905428665876386
22.903013586307697,120.27312098702002,18.922573187947272
22.90301720365701,120.27312277756873,18.93972749710083
22.903020371327624,120.2731246055078,18.95691728442907
22.903023085650116,120.2731264597184,18.97415111362934
22.903025341819294,120.27312832882308,18.991442441940308
22.903027135379435,120.27313020077212,19.00883898139
22.903028461874815,120.27313206361922,19.026335838437078
22.903029318334948,120.27313390738325,19.043929342925548
22.90302969969254,120.27313571970423,19.061561995744704
22.903029603064475,120.273137490239,19.079220339655876
22.903029024519235,120.2731392084376,19.09692272543907
22.9030279609116,120.2731408635949,19.11465447247028
22.90302640857215,120.2731424453678,19.132422921061515
22.903024363831463,120.27314394305115,19.1502256244421
22.903021823544325,120.27314534599155,19.16806013584137
22.903018784128683,120.2731466439493,19.18592890202999
22.903015241915114,120.2731478258573,19.203833146393297
22.903011193408933,120.27314888137238,19.221765528619287
22.903006635727028,120.27314980009976,19.239733389019964
22.903001564588404,120.27315057097226,19.257735504209993
22.902995977109946,120.27315118359509,19.27576942741871
22.902989869796972,120.27315162721138,19.293835158646104
22.902983238892688,120.27315189142631,19.31193025112152
22.902976081164518,120.27315196543131,19.330055928230284
22.902968393467237,120.2731518383144,19.348215860128402
22.90296017213143,120.27315149988762,19.366400259733197
22.90295141392451,120.2731509390838,19.384621360898016
22.902942115526525,120.27315014555987,19.402870599925517
22.90293227309332,120.27314910855895,19.421146753430364
22.902921883741783,120.27314781706563,19.439455938339233
22.90291094423933,120.27314626089196,19.457792037725447
22.902899450916536,120.27314442902251,19.47615505158901
22.902887400366083,120.27314231075214,19.494540086388586
22.902874789966962,120.27313989558259,19.512956929206847
22.90286161587501,120.2731371727053,19.531403133273123
22.90284787494502,120.27313413146689,19.54987135827541
22.902833563944398,120.27313076131735,19.56836649775505
22.90281867990267,120.27312705149984,19.5868873283267
22.902803219368824,120.27312299094723,19.605431403219697
22.9027869631387,120.27311839487973,19.729887616634368
22.902770165013848,120.27311370949943,19.80434774160385
22.902752541924723,120.2731090191027,19.87173180580139
22.90273425633053,120.27310450159119,19.873253697156905
22.902715703917067,120.27310010917968,19.90991121530533
22.90269763346447,120.27309612201148,19.949661451578137
22.902680605738762,120.27309306882677,19.82193268239498
22.90266321194471,120.27309018526917,19.771114479005334
22.90264480766225,120.27308712836091,19.732055455446243
22.90262474121983,120.27308327591183,19.894403582811353
22.90260490625667,120.2730791316834,19.95513487756252
22.90258635034853,120.27307450013902,20.0042170971632
22.90256968773012,120.27306937879634,20.016967219114303
22.90255332299,120.27306420744466,20.05515029877424
22.902535603141757,120.27305970456867,20.094233790040015
22.902516137173738,120.2730566562452,19.863814055919647
22.902495352267596,120.27305352155672,19.759105728566645
22.902475181465125,120.27304958098428,19.67076874375343
22.90245626497093,120.27304447339793,19.703904135525224
22.90243787678586,120.27303920065786,19.66979982256889
22.902418524264082,120.27303433331626,19.6314638197422
22.90239748885449,120.27302967268187,19.81530193388462
22.9023780350305,120.27302570834611,19.897285878658295
22.90236272404737,120.27302218429098,19.962727206945416
22.90235346555433,120.27301861741535,19.98039289116859
22.902350050307067,120.27301259518717,20.028474381566046
22.902352413042323,120.27300136344122,20.076015135645864
22.902360089775026,120.27298325946973,20.126237550377844
22.90237025693007,120.27296060628505,20.17356054186821
22.902379632254824,120.27293677214915,20.22251308262348
22.902386661706185,120.2729144931526,19.99209212511778
22.902391948750868,120.27289286569486,19.895475268363953
22.902397702751106,120.27287151659624,19.815123319625854
22.902404833264413,120.27285059045354,19.779383340477942
22.902412561106896,120.2728305952948,19.71232469677925
22.9024197700759,120.2728116959764,19.645908330380916
22.90242561118118,120.27279340250608,19.79505735337734
22.902431427496037,120.27277578732443,19.842867252230644
22.902437779131233,120.27275809178971,19.876695080101488
22.90244522165446,120.2727400273677,19.730949515104292
22.90245231724275,120.27272097446694,19.67924191057682
22.902458243465475,120.27270113705367,19.6364270940423
22.902462069709635,120.27268111576564,19.873429864645004
22.902465307492385,120.27266648904667,19.971014419198035
22.90246809227648,120.27266276773537,20.054372225701808
22.90247103370987,120.2726735478879,19.839052736759186
22.902473396860117,120.27269361873239,19.776891304552553
22.90247632112586,120.27271703284725,19.72756563127041
22.902480218355826,120.2727394779284,19.829692615568636
22.902485031674004,120.27276059329843,19.847658029198644
22.902489711932017,120.27278019244505,19.859818479418752
22.902493727194997,120.27279794678041,19.86981476098299
22.90249751180871,120.27281471608902,19.88631822913885
22.90250148094184,120.27283178777864,19.901628896594048
22.902505849342823,120.27285004868108,19.875839933753014
22.902510157242062,120.2728687766011,19.870218478143215
22.902514194041043,120.27288697790132,19.86718815267086
22.90251790627108,120.27290417436774,19.890641672909258
22.902521975789057,120.27292176917344,19.899478185176847
22.902526906659727,120.27294157096759,19.90709987580776
22.902532721554866,120.27296415009553,19.927318765223024
22.902538006699313,120.27298583446628,19.944102388620376
22.90254143227774,120.27300165061786,19.960219267010686
22.902542801495652,120.27300800884221,19.89447209239006
22.902544527040472,120.2730044709273,19.86569806933403
22.90254944454397,120.27299203625098,19.840643137693405
22.902558738529912,120.2729720233538,19.884046402573585
22.902569915059434,120.27294829761377,19.893246260285377
22.902579642866943,120.27292485561128,19.900738272070882
22.902586148574102,120.27290425695752,19.896639931201932
22.902591057428253,120.27288558501961,19.90091443955898
22.90259658169658,120.27286722554727,19.904463480412957
22.902604014500213,120.27284849798924,19.849504117667674
22.902612319315327,120.27282941605019,19.821845822036266
22.90262049072081,120.27281034850097,19.79817943274975
22.902627842971935,120.27279129364794,19.835539174079894
22.902634834440427,120.27277217755073,19.841572910547256
22.902641740988056,120.27275264465176,19.84423377364874
22.90264861167147,120.27273321902383,19.86331858485937
22.90265487012961,120.27271794332599,19.878175376355646
22.902659491895317,120.27271167782769,19.893039508163927
22.902662168387835,120.27271755743722,19.795098948478696
22.90266399868586,120.27273246588977,19.750096718966958
22.902667295572485,120.27275232329112,19.70929559469223
22.902673302369557,120.27277412006569,19.738577322661875
22.902681095693715,120.27279641672311,19.72971144914627
22.902689077905645,120.27281766985053,19.717875196039675
22.9026962992371,120.27283657115997,19.725170242786405
22.902703011917033,120.27285404120182,19.725988687574862
22.902709298813175,120.27287160826212,19.725401462614535
22.902715190241935,120.27289022664854,19.701473268866536
22.902720799081656,120.27290908243535,19.689542815089226
22.902726509310956,120.27292699751567,19.678576388955115
22.902732636106805,120.27294340050985,19.64117138236761
22.90273905296158,120.27295911941027,19.61546927988529
22.90274561537002,120.27297547420552,19.59207325875759
22.90275214798626,120.27299319325792,19.58936835378408
22.902758630016926,120.27301155513503,19.576263450086117
22.902765053336868,120.27302932892837,19.5620562762022
22.902771500202256,120.27304579617916,19.527549469470976
22.90277801984448,120.27306145426206,19.503092773258686
22.902784686525607,120.27307725725201,19.479832547903058
22.90279164265409,120.2730939924154,19.368322198092937
22.9027984067059,120.27311114621645,19.298230782151222
22.90280495343194,120.2731282615411,19.2344765022397
22.90281093795039,120.27314479920267,19.303101079165934
22.902816791549174,120.27316112177911,19.306376081705093
22.90282228266167,120.27317714616349,19.301772482693195
22.90282735851812,120.27319271493356,19.313112041354177
22.90283210491306,120.27320783584666,19.321968127787112
22.902836525865386,120.27322253538118,19.32836276292801
22.902840624607673,120.2732368290518,19.335830307006834
22.90284440935244,120.27325072037515,19.3434862524271
22.902847887875357,120.27326421002354,19.350851032137868
22.902851069262613,120.27327729830729,19.358199907839296
22.902853961115145,120.27328998589867,19.365563464164733
22.902856571558104,120.27330227222885,19.37287563830614
22.902858908454522,120.27331415647033,19.380157227814195
22.90286097896852,120.27332563753711,19.387421689927578
22.902862791312593,120.27333671460175,19.394658014178276
22.902864352912964,120.27334738714707,19.401882104575634
22.902865671545296,120.27335765434565,19.409084174036977
22.902866754810542,120.27336751542173,19.416274009644983
22.902867610659104,120.27337696985815,19.423456504940987
22.902868246167724,120.27338601631033,19.430632883310317
22.902868669898382,120.27339465457139,19.437803144752976
22.902868888665715,120.27340288386561,19.4449611723423
22.902868911031707,120.27341070429641,19.452115529775618
22.90286874372362,120.27341811431234,19.459258876740932
22.902868395216075,120.27342511349964,19.466402223706243
22.902867872411072,120.27343170118603,19.47355046421289
22.90286718343376,120.27343787587176,19.480692587792873
22.90286633544824,120.2734436381257,19.487853062152862
22.902865336492294,120.27344898675838,19.495024546980858
22.90286419442896,120.27345392161467,19.50222049951553
22.902862916422347,120.27345844207399,19.509409111738204
22.902861510510235,120.27346254694685,19.51659283041954
22.90285998394409,120.2734662359747,19.523764315247533
22.902858344761697,120.27346950801977,19.530928459763526
22.902856600214527,120.27347236272007,19.538080370426176
22.902854757641418,120.27347479945502,19.54522371739149
22.902852825342247,120.27347681760402,19.5523597240448
22.902850810481127,120.27347841654648,19.559478603303432
22.90284872074636,120.2734795952481,19.56659014225006
22.90284656382626,120.27348035360544,19.57368700057268
22.902844347409133,120.27348069089449,19.580769178271293
22.902842079008554,120.27348060670151,19.58784156888723
22.902839766138097,120.27348009999221,19.594899278879165
22.902837416660805,120.27347917066315,19.601941084861753
22.902835038002888,120.27347781768,19.608964540064335
22.902832638027387,120.27347604104278,19.615975761413573
22.902830223985774,120.27347384002748,19.6229686319828
22.90282780391583,120.2734712137032,19.629948045313355
22.902825385069026,120.27346816206995,19.6369091078639
22.902822975570505,120.27346468424855,19.64384937286377
22.90282058289016,120.27346078029075,19.65077618062496
22.90281821449788,120.27345644911048,19.65768341422081
22.902815878038297,120.27345169055262,19.664568626880644
22.902813581592863,120.27344650399657,19.671440382301807
