Latitude,Longitude,Altitude (m)
22.902890976056693,120.27307960415274,7.210701425045729
22.902890470436656,120.27307975644527,7.209990044265986
22.90288995434611,120.27307990265342,7.209271053344011
22.902889427961036,120.27308004263995,7.208543447166681
22.90288889084148,120.27308017649635,7.207807417184115
22.902888343031453,120.27308030390239,7.207063729196787
22.902887784266984,120.27308042517829,7.206311090916396
22.90288721498801,120.27308053959212,7.205551177531481
22.902886634446638,120.27308064778433,7.2047829360663895
22.90288604295083,120.27308074929742,7.204007419496775
22.90288544041259,120.27308084417719,7.203224292784929
22.902884826391983,120.27308093237784,7.202433795243502
22.902884201152975,120.27308101357917,7.201636836260557
22.902883564475594,120.2730810882844,7.200833080798388
22.902882915919903,120.27308115585306,7.200023438245059
22.902882255749866,120.2730812165139,7.199208100050688
22.902881583525545,120.2730812700839,7.19838850209117
22.902880899422914,120.27308131670033,7.197564070016146
22.902880203002038,120.27308135613444,7.19673614397645
22.902879494306905,120.27308138815751,7.1959052025973795
22.90287877307356,120.27308141299825,7.195071963816882
22.902878039214013,120.27308143065669,7.194237719923258
22.902877292552287,120.27308144058384,7.193402997404338
22.90287653269244,120.27308144319143,7.192569615036249
22.90287575963447,120.27308143838796,7.1917378599941735
22.9028749732024,120.27308142594472,7.1909089767038825
22.902874173088282,120.27308140572444,7.190084496766329
22.902873359160132,120.27308137781863,7.189266143232584
22.902872531065995,120.27308134231878,7.188454873353243
22.902871688585908,120.27308129885891,7.187652314454318
22.902870831587883,120.27308124757626,7.186860668212176
22.902869959544006,120.27308118815061,7.186080891877413
22.902869072542252,120.27308112081069,7.185315665751696
22.902868169834736,120.27308104564798,7.184566042810679
22.90286725159743,120.27308096234228,7.183835277706385
22.90286631721442,120.27308087066483,7.183124519139529
22.90286536642175,120.27308077093586,7.182436734586954
22.902864398779478,120.2730806630639,7.18177441290021
22.90286341424361,120.27308054691167,7.181139372855426
22.902862411978262,120.27308042252496,7.1805349648296835
22.90286139198344,120.27308028953776,7.1799635819494725
22.90286035355524,120.2730801483618,7.179429244667292
22.902859296341713,120.27307999863112,7.178933676034212
22.902858220122894,120.27307984048294,7.178480513602495
22.902857124062898,120.27307967364278,7.178073586374522
22.902856007941757,120.27307949861388,7.177715861827135
22.90285487114356,120.273079314893,7.177411168962717
22.902853713228367,120.2730791225259,7.1771631453335285
22.90285253358027,120.2730789217413,7.176975811392069
22.90285133158335,120.27307871199024,7.176853666216135
22.902850106665696,120.27307849386744,7.176800825983286
22.902848858255382,120.27307826718992,7.176822076946498
22.902847585780496,120.27307803159168,7.176922109633685
22.902846288537134,120.27307778730146,7.177105614572763
22.902844965689418,120.27307753436503,7.177378622442484
22.902843616709422,120.27307727269087,7.177746589571238
22.902842241025223,120.27307700227898,7.178215833812953
22.90284083749299,120.27307672317512,7.178792864471674
22.902839405452816,120.27307643492182,7.179484956651926
22.902837944156804,120.27307613802229,7.18029957690835
22.902836452725083,120.27307583215631,7.181246202021837
22.902834930409757,120.27307551723237,7.182332777172327
22.90283337611098,120.27307519329624,7.183570119291544
22.902831788860897,120.27307486048512,7.184969141036272
22.90283016791161,120.27307451788411,7.1865419037640095
22.902828512031295,120.27307416613365,7.188301234632731
22.902826820032118,120.27307380463904,7.190261779576541
22.902825090946223,120.27307343376623,7.1924387588799
22.90282332367376,120.27307305264605,7.194847775727511
22.902821516850928,120.27307266104975,7.197507496505976
22.902819669069927,120.2730722590231,7.2004351517260075
22.90281777901094,120.2730718459256,7.203649982124567
22.90281584522218,120.2730714212998,7.207170654088259
22.902813866207858,120.27307098455098,7.2110166955292225
22.902811840120233,120.2730705350387,7.2152058155834675
22.90280976519956,120.27307007212247,7.2197561062872415
22.902807639554105,120.27306959442988,7.224682883650065
22.902805461072173,120.2730691016407,7.229998209029437
22.902803227510077,120.27306859197081,7.2357130908072
22.902800936052227,120.27306806436799,7.241832028061152
22.902798584410938,120.27306751713962,7.24835559514165
22.902796169286688,120.2730669482728,7.255276899844408
22.902793687423934,120.27306635580041,7.262580721884966
22.9027911351712,120.27306573720635,7.270244087249041
22.902788508525056,120.27306508965431,7.278233970791102
22.902785802866156,120.2730644098962,7.286504903107882
22.902783012959247,120.2730636945925,7.295003373891116
22.902780133217124,120.27306293857376,7.303665630251169
22.902777157216704,120.2730621380887,7.312421888619662
22.902774077611028,120.27306128700722,7.321198536425829
22.902770886041292,120.27306037919918,7.329922056823969
22.90276757348877,120.27305940771097,7.338523432046175
22.90276412873507,120.2730583641709,7.346939387828112
22.902760540473793,120.2730572397497,7.3551155523359775
22.90275679445097,120.27305602378831,7.363008945018053
22.9027528752248,120.27305470517013,7.370586636453867
22.90274876488983,120.27305327071996,7.3778313961327076
22.90274444334092,120.2730517070796,7.384739347189665
22.902739887833313,120.27304999842052,7.3913274329602725
22.902735072300715,120.27304812859396,7.39763255545497
22.902729968257184,120.27304608131388,7.40371281978488
22.902724543565288,120.2730438400198,7.409642700046301
22.902718764239868,120.27304138924914,7.415506147116423
22.902712593238196,120.27303871710764,7.421381799131632
22.90270599334157,120.27303581590974,7.427324458688497
22.90269892843113,120.27303268592995,7.433349346071482
22.902691366633412,120.27302933741564,7.439423699378968
22.9026832834879,120.27302579328617,7.445470005244017
22.902674667952162,120.27302209100851,7.451384713083506
22.902665525679396,120.27301828154509,7.457062716782094
22.902655884011708,120.27301442729514,7.462417624473572
22.9026457935419,120.27301059811467,7.467391259253025
22.902635328421418,120.27300686637581,7.471946958422661
22.902624581916985,120.27300330673802,7.476060527473688
22.90261366372699,120.27299999875575,7.479702100187541
22.902637412096844,120.27301214437108,7.804515247344971
22.90268115731452,120.27300290599227,8.192163831233978
22.90270425871246,120.27298373115481,8.69654127573967
22.90265560003213,120.27294711612336,9.233239329338074
22.902524987286444,120.27292778370955,9.880949351549148
22.902372388573806,120.2729457582998,10.237855641126632
22.902339608050262,120.27298141435492,10.28292510509491
22.902365302198547,120.27303498774762,10.384969550132752
22.902348880269532,120.27307090133677,10.431658873558044
22.90230009630053,120.27307871647348,10.5106240067482
22.902239646099503,120.27307328700911,10.527720502376557
22.902175461149046,120.27306428303913,10.52729471731186
22.902153581347232,120.27306777346135,10.49669218158722
22.902173254115176,120.27307371863424,10.46353416967392
22.902207757997186,120.27304382277309,10.424829464912415
22.902250565653304,120.27297934061006,10.422536275386811
22.902298184860587,120.27290349590994,10.380766454219819
22.902342644316604,120.27283978566282,10.354225724220276
22.902376058838037,120.27280145872425,10.31844714307785
22.90239812754759,120.27278375870888,10.311291503429413
22.902413023277457,120.27277533874803,10.295917867422103
22.90242368040861,120.27277175207364,10.22378386592865
22.902432601084918,120.27276985612541,10.195739678144456
22.902441465405243,120.27276556219881,10.149857316970825
22.902453689593358,120.27275399071124,10.165306958675385
22.902470584299707,120.27273424373601,10.10876293182373
22.90249245836034,120.27271061501676,10.07906155180931
22.90251829947933,120.27268770407728,10.053343482971192
22.90254750093904,120.27266999816052,10.07697646856308
22.902579414645714,120.27266104323157,10.111134615898132
22.90261330511203,120.27266474825404,10.15059574007988
22.902648467833266,120.27268511977046,10.172478105783462
22.902684312919376,120.27272339448285,10.185687589645386
22.90272065124129,120.27277365035499,10.216586490154267
22.902754714646992,120.2728231878126,10.182927453279495
22.90277950058717,120.27286291262645,10.109275635242462
22.902785444229202,120.27288675800459,10.02077877497673
22.90278160199207,120.27290825060264,9.963190004825591
22.902779739913104,120.27294048176844,9.841686186790467
22.902779423246177,120.27298186306663,9.767665635824203
22.902778691234364,120.27301312249263,9.73163300037384
22.90278171637579,120.27303985378907,9.723543849945068
22.9027903559981,120.27305834262395,9.715638491630555
22.902800558629945,120.27307059547078,9.710262955188751
22.90280794416675,120.273080661234,9.706688964366913
22.902810096648384,120.27308888155393,9.702122113227844
22.90281019510637,120.27310116354175,9.69744728422165
22.902811513466727,120.27312011803768,9.690961337089538
22.90281584522218,120.27314880493677,9.684786687850952
22.90282143387874,120.27318377823734,9.677353828430176
22.902827309814406,120.27322378894848,9.673076066970825
22.902833061951696,120.27326827877103,9.677405137062072
22.902838875900187,120.27331691923982,9.695612426280976
22.902844819278258,120.27336783476416,9.727358302116395
22.902849758059315,120.27341133475385,9.74483348608017
22.90285331512903,120.27343773868313,9.749627397060394
22.902854601461943,120.27343416198163,9.74510649394989
22.90285436196003,120.27340027645872,9.702863982439041
22.90285533835706,120.27335820982125,9.639301585674286
22.902857854578922,120.27332561999717,9.56140359544754
22.90286151534188,120.27331240334766,9.51889209651947
22.902865260000898,120.27331352680817,9.52281299495697
22.902867482212606,120.27331730827427,9.499081795454025
22.902861496952497,120.27327979293732,9.26033717918396
22.902850358969786,120.27322467882362,9.112605652093887
22.90283391226267,120.27316207250294,8.836386206626893
22.90282799677663,120.27313825640302,8.858255170822144
22.90283002304023,120.273116792031,8.811575419902802
22.90283721399273,120.27309300054311,8.777546118497849
22.90284541429357,120.27307478395001,8.736400233268737
22.90285188577247,120.27306643265577,8.686047990441322
22.90285566008327,120.27306580628468,8.628184202194214
22.902857024813024,120.27306858620666,8.570081771373749
22.902857177427304,120.27307224625962,8.520298805475235
22.902856984690736,120.27307585411498,8.48408888721466
22.902857070962455,120.27307960259733,8.461022881150246
22.9028569076577,120.27308232803436,8.44655164527893
22.90285677704029,120.27308399474323,8.428384369134903
22.902856862080185,120.27308444631414,8.403563818454742
22.902857762016097,120.27308479367287,8.386666526675224
22.902859523965315,120.27308537932892,8.388260923266412
22.902862064295746,120.27308642236578,8.406223443508148
22.902865159299232,120.27308784666008,8.429829626083373
22.90286858764327,120.27308958972107,8.447822682619096
22.902872151663995,120.27309158457481,8.454076783657074
22.902875690168354,120.27309368885594,8.450672417640686
22.90287911200132,120.27309587845566,8.446431318879128
22.902882343737343,120.2730981254224,8.451203691720963
22.902885328888463,120.27310045880566,8.465537562131882
22.902887999748312,120.27310281414759,8.482234501361846
22.902890303392432,120.27310512868299,8.497844578266143
22.90289222385109,120.27310738768125,8.513128041267395
22.902893786860623,120.27310963753007,8.529781425595283
22.902895037822574,120.27311201419022,8.54903163933754
22.90289597735285,120.27311462818699,8.570960910320283
22.90289654742371,120.27311765637918,8.596663950324059
22.902896648125378,120.27312118248426,8.62494094145298
22.902896268107465,120.27312500933162,8.648091185569763
22.90289541907231,120.27312883439484,8.65679402935505
22.902894120773098,120.27313235738909,8.656434581756592
22.902892537746414,120.27313547853967,8.664085885763168
22.902890892908527,120.27313835366164,8.682553164243698
22.90288917464509,120.2731412081516,8.713335567355156
22.902887464168543,120.27314392626907,8.748712198972703
22.902885587835605,120.27314615342726,8.776930414915086
22.90288357362629,120.27314764359757,8.791993901729583
22.902881135361334,120.27314892333061,8.806648068189622
22.902878257422955,120.27314999386155,8.821495216369629
22.90287492150976,120.27315085404673,8.837301146745682
22.902871106548748,120.27315149981465,8.854936574459076
22.902866788343367,120.27315192471492,8.875272789001466
22.9028619388696,120.27315211904917,8.899061232089997
22.90285652438425,120.27315207032836,8.926816138744355
22.902850505688903,120.27315176222076,8.958742360591888
22.902843834610408,120.27315117446034,8.994713349103927
22.902836452857063,120.27315028184037,9.034316912174225
22.902828288631092,120.27314905334423,9.076934665918351
22.90281925381303,120.27314745026976,9.121844651937485
22.90280923811058,120.27314542449089,9.168309978723526
22.902798103999316,120.27314291534677,9.215648318052292
22.902785679199756,120.27313984662251,9.263270195007324
22.902771747570668,120.27313612234045,9.310694686889649
22.902756039782382,120.2731316210874,9.357544636964798
22.90273822436408,120.2731261909826,9.403533827304841
22.90271790761579,120.27311964409637,9.448448025226593
22.902694652877674,120.2731117542087,9.492123732328414
22.90266805080999,120.27310225996564,9.534434782981872
22.90263788223593,120.27309087247342,9.575274539470673
22.902604430717137,120.27307728527136,9.614545553684234
22.902568928782184,120.27306118151411,9.65215018606186
22.902533924240434,120.27304228763326,9.687982947587967
22.90250308964517,120.2730205919175,9.721923416137695
22.902480110956763,120.27299666012284,9.753832407474517
22.902467105780808,120.27297161774553,9.783542211294174
22.902463743124923,120.2729466247066,9.810851613521576
22.90246773675,120.27292241266441,9.835514792203904
22.902487457559108,120.27290430417202,10.059647935390473
22.902511752089232,120.27288167747723,10.146147205114366
22.90253317019876,120.27285717743335,10.196243000507355
22.90254842526948,120.27283226845496,10.10594593477249
22.902563001131874,120.27282633051013,10.17001892900467
22.90257098911893,120.27282226353556,10.209517003059387
22.902572134957843,120.27280776603222,10.2312335729599
22.902569606549715,120.27278700962148,10.255259797096253
22.902563730987993,120.27276687109571,10.266417127132415
22.90255371635239,120.2727584276551,10.2460705742836
22.902545362788366,120.27277256930218,10.244577263355255
22.902546085990434,120.27279991704256,10.230766434669494
22.902556121984993,120.27281056496217,10.18084122133255
22.90257211707439,120.2727885791861,10.143665437221527
22.902591942610588,120.2727487573195,10.089701392173767
22.902616538365837,120.27271168696588,10.112723651885986
22.902641565567677,120.27268924127573,10.042358458042145
22.90266308536873,120.27268056211108,10.006028692007066
22.902676983870535,120.27267895578856,9.96245866537094
22.902683864227242,120.272677011577,9.987619614362718
22.90268656306711,120.27266930197916,10.024254551887513
22.902687847992226,120.27265592969758,10.06612871336937
22.902689399959332,120.27264094317921,10.105428062200547
22.902691706331062,120.27262823615388,10.130595903396607
22.902694114702275,120.272621125982,10.121457414865494
22.902696564735557,120.27262263962064,10.131218882083893
22.902699479804653,120.27263321715812,10.121430037498474
22.90270484407115,120.27265386519367,10.120027282476425
22.902713002357967,120.27268377571681,10.079495569229126
22.902723398980196,120.27272262920029,10.045723768234254
22.902734349769556,120.27276637322859,10.015970696687699
22.902743252914355,120.27280713316502,9.986641112804413
22.90274888270506,120.27283837884397,9.973414589881896
22.902751140683677,120.27285600982677,9.950276119947434
22.902751842867737,120.272861746987,9.918249769687653
22.902753456294093,120.27286219647642,9.848152797460557
22.90275714160556,120.27286590486132,9.770771148204803
22.902759488759482,120.27287418556759,9.672735860109329
22.90276015196509,120.27288783420819,9.66034712290764
22.9027601301002,120.272902028659,9.70255593919754
22.90276551990506,120.27292750785375,9.803743070602417
22.902774208888346,120.2729587058412,9.779742500782014
22.902784537870204,120.27299359931285,9.66749204134941
22.902791882800788,120.27302417625879,9.532957745313645
22.902797215633758,120.27305035776503,9.417831705093384
22.902802225860643,120.27307419952913,9.325928755760193
22.902805962468808,120.27309406993038,9.218645852565766
22.90280734277235,120.27311093707166,9.102427397966386
22.902804745074082,120.2731198681663,8.927533885240555
22.902799011106207,120.27311898071578,8.702866404771806
22.902796020411877,120.27311710155678,8.524975357532501
22.902798198629846,120.27312018194657,8.44283971464634
22.902804142359866,120.2731329726436,8.441819764137268
22.902808594174232,120.27314528418412,8.455961514353753
22.90281139028426,120.27314893742076,8.457537818908692
22.902813676594842,120.27313906791315,8.44844977748394
22.90281731896842,120.27313195334955,8.450573055028915
22.902821455523657,120.27313166948798,8.45956489276886
22.902825113910954,120.27313187210247,8.470153998851776
22.9028292412715,120.27313288288754,8.484150342702867
22.902833479716236,120.27313341428737,8.48950596833229
22.902838590732777,120.27313543832786,8.49171424973011
22.902843313372596,120.27313468606039,8.467260996103287
22.902847970329763,120.27313418558568,8.429635782837869
22.902852623899413,120.27313729703785,8.404516857147216
22.902856841931055,120.27314161585093,8.389430970668792
22.90286213741334,120.27314728782135,8.419351465344429
22.902867183583112,120.27314205552756,8.4373228880167
22.90287438817367,120.27314096363266,8.582714703202248
22.902880478490825,120.27314742282142,8.730779449224473
22.902885251811433,120.27318264443797,8.95575765323639
22.902884423849276,120.27323390841896,9.076851002216339
22.902880043040803,120.27328710837702,9.169405264854431
22.902875755235094,120.27332616429771,9.221343576192856
22.90287339409116,120.27334556917513,9.248644937515259
22.902872112245607,120.27335050658228,9.265366573810578
22.902870677477818,120.27334953907409,9.282469195842744
22.902867730777228,120.27334762903571,9.301659007072448
22.90286350781829,120.27334673641573,9.317237494707108
22.90285853014677,120.27334625245578,9.325349427700043
22.902854356592798,120.27334613342148,9.329601726293564
22.90285129106512,120.2733457135534,9.329291768550872
22.902849294673267,120.27334466264801,9.321790944337845
22.90284809575591,120.27334286802989,9.30896589231491
22.90284742850288,120.2733403806157,9.294556973457336
22.90284710105749,120.27333731788434,9.282227202892303
22.902846818089763,120.27333356391232,9.274449350357056
22.902846528566972,120.27332917913172,9.26988211631775
22.902846207456676,120.27332421098245,9.265885595083237
22.902845768927094,120.27331858507948,9.261139738082885
22.90284523083968,120.27331231102976,9.254816523551941
22.90284464761469,120.27330547040057,9.24641684103012
22.902844148901675,120.27329825514731,9.23721345090866
22.902843796731798,120.27329084551405,9.237579886436462
22.90284362977556,120.27328339919154,9.253410322427749
22.902843611738128,120.27327605698972,9.272747741699218
22.902843668754013,120.27326884978795,9.285568773269654
22.902843652916268,120.27326177845549,9.290550305366516
22.902843343024376,120.2732548748781,9.289741237163543
22.902842522629143,120.27324812839673,9.28438522863388
22.902840999477935,120.27324150282527,9.275009341955185
22.90283877475858,120.27323489930399,9.260664558887482
22.902835948644828,120.27322831714665,9.242044694662095
22.902832786814855,120.27322177790022,9.22113010931015
22.902829603603927,120.27321529053116,9.199724645853042
22.902826436230747,120.27320874680149,9.177770869255067
22.902823125525963,120.27320193750916,9.152698944568634
22.902819686491448,120.2731945485994,9.131179185390472
