Latitude,Longitude,Altitude (m)
22.903689206745742,120.2731222608321,24.367466995835308
22.90367989947245,120.27312830507468,24.292890702009203
22.903670214630257,120.2731343990269,24.218986624836923
22.90366014650708,120.27314050861128,24.145749343216423
22.90364968796281,120.2731466028512,24.07318608528376
22.90363883471338,120.27315265482996,24.00128239476681
22.903627582189127,120.27315864108331,23.930047306835654
22.903615925820375,120.27316454358156,23.859453715980056
22.90360386046625,120.27317034659661,23.789505236268045
22.903591384413126,120.27317603874803,23.720181990325454
22.90357849223452,120.27318161070126,23.65146229374409
22.90356518307362,120.27318705580703,23.583326269149783
22.903551452075153,120.27319236888661,23.515746811032297
22.903537300952742,120.27319754635961,23.448707656085492
22.903522729135183,120.27320258541289,23.382176277697088
22.90350773776489,120.27320748297755,23.31612376332283
22.903492328841093,120.27321223694375,23.250517586350444
22.903476507504674,120.27321684449834,23.185334255337718
22.90346027718288,120.27322130282813,23.120543050706388
22.90344364587263,120.27322560803312,23.056116866946223
22.90342662271327,120.27322975627716,22.992019563376907
22.903409217986546,120.27323374084709,22.928236683726315
22.903391441688616,120.27323755720349,22.86473208731413
22.903373307814086,120.27324119722658,22.801487703800202
22.903354832928013,120.27324465273267,22.738476427674296
22.903336033024228,120.27324791368393,22.675687416732313
22.903316926095812,120.27325096991467,22.613097179532055
22.903297534134293,120.27325380844601,22.550696680903435
22.903277877988785,120.27325641649095,22.488476885676388
22.903257980793242,120.27325877947224,22.426419723510744
22.903237867680836,120.27326088191757,22.36452700144053
22.903217565783983,120.27326270720377,22.30279329836369
22.903197101949484,120.27326423723719,22.24121680724621
22.903176504166563,120.27326545386023,22.179806563258172
22.9031558044229,120.27326633795626,22.118566180467607
22.903135027851683,120.27326687008897,22.057499272942547
22.9031142072974,120.27326702960733,21.996625718057157
22.903093373034107,120.27326679733072,21.935958165049556
22.90307255362224,120.27326615235235,21.875505649089817
22.903051777907834,120.27326507600316,21.815298889756203
22.90303107587934,120.27326354833534,21.75535595738888
22.903010473812355,120.27326155138311,21.695703957498075
22.90299000026731,120.27325906718067,21.63637722373009
22.90296967866376,120.2732560802557,21.577392019391063
22.902949534420483,120.27325257481621,21.518797134399417
22.902929589814622,120.273248537244,21.460628709435465
22.902909866837707,120.27324395513564,21.40291927111149
22.90289038576764,120.27323881749427,21.345724837481978
22.90287116659673,120.27323311511323,21.289083356261255
22.90285222560442,120.27322683942519,21.233040003299717
22.902833582211798,120.27321998352515,21.17765983182192
22.90281525355513,120.27321254204256,21.122991631746295
22.90279725477144,120.27320450941505,21.069093228161336
22.9027796038538,120.27319588276553,21.016036902427675
22.902762315939242,120.27318665774644,20.963885900735857
22.902745408164023,120.27317683307903,20.91270708334446
22.90272889652198,120.2731664056305,20.86258357381821
22.902712799291795,120.2731553743779,20.813580425381662
22.902697134180933,120.273143737531,20.76580244600773
22.90268192032488,120.27313149477015,20.71932191705704
22.902667176287924,120.2731186452642,20.674243646502497
22.902652922062355,120.27310518872545,20.630661600112916
22.902639180782135,120.27309112588912,20.58868058586121
22.90262597329637,120.27307645848148,20.54841263985634
22.90261332273901,120.27306118896405,20.509975219309332
22.902601254814446,120.27304532168439,20.473487588465215
22.902589791799812,120.27302886281228,20.439087081909182
22.90257896282675,120.2730118220339,20.406896577954296
22.902568794170858,120.27299421178462,20.3770714815259
22.90255931496377,120.27297604964664,20.349741899073127
22.90255055519394,120.27295735844483,20.32506323552132
22.90254254684906,120.27293816893203,20.303194509863854
22.902535321631195,120.27291852113166,20.284285705924034
22.902528914098472,120.27289846670338,20.268485000491143
22.9025233579522,120.2728780726513,20.255935149252416
22.90251868660809,120.27285742522398,20.246773486793042
22.902514933053432,120.27283663486952,20.24110843515396
22.902512125277447,120.27281584250109,20.239019503831866
22.902510284843267,120.27279522665776,20.240544640541078
22.90250942131863,120.27277501296689,20.245662160873415
22.902509524278987,120.27275548299912,20.254258221685888
22.90251190407691,120.2727363908916,20.33363038378954
22.902515478700465,120.27271961987981,20.411925553619863
22.902519363775912,120.27270565100427,20.48997677385807
22.90252286299993,120.27269543737904,20.563378495574
22.902525504554205,120.2726892008673,20.64361622697115
22.902526998835963,120.27268703915404,20.72744453495741
22.90252836859424,120.27268815971443,20.857337754070763
22.902529168000704,120.27269305568872,20.981583991885188
22.902529038621953,120.27270103851869,21.101375890851024
22.902528635348666,120.27271165862797,21.199374959588052
22.902534422548822,120.27272351173569,21.310558148503304
22.90255535191835,120.27273581457965,21.440675439834596
22.90259605595917,120.27274856715982,21.571963689208033
22.902649994903772,120.27276141401246,21.694930546939375
22.90270419003544,120.27277419712169,21.783462564468387
22.902750503916142,120.27278465644193,21.90318398910761
22.90278732231031,120.2727931010679,21.976536920905115
22.902818730502013,120.27279810041742,22.01963829624653
22.902845351679858,120.2728018856054,21.845736570715907
22.90287081930189,120.2728012126554,21.672431166410448
22.902895101094817,120.27279848549917,21.49218313741684
22.902917529601375,120.27279417994254,21.433468988180163
22.902935675185677,120.272791955349,21.34229327988625
22.90295125004558,120.27279024466665,21.223215159356595
22.902967902204942,120.27278777823821,21.041288395762447
22.90298751865145,120.27278376857372,20.856627589702608
22.90300765546901,120.27278052347839,20.67808901488781
22.903024258218828,120.27277943050603,20.59610026752949
22.903028450604513,120.27278352561993,20.534780375242235
22.903012375937067,120.27279246526425,20.497192260682585
22.902974347723035,120.27280462430193,20.430962656974796
22.902927960156422,120.27281439961135,20.37957241660357
22.90289299476302,120.27281785722731,20.338466006815434
22.902881495762248,120.27281535269347,20.304217291116718
22.902888065232613,120.27281208640362,20.27257070440054
22.90289686413023,120.2728141328417,20.234632025241854
22.90289535442584,120.2728228818632,20.237315470755103
22.902879493676025,120.27283686190343,20.225851646959782
22.90285352424722,120.27285131257072,20.195383246421816
22.9028235986275,120.27286341147735,20.07569976949692
22.902796436800692,120.27287142358165,19.91332149988413
22.9027753837645,120.27287726243239,19.705901100397114
22.902758992933084,120.27288392000543,19.431224701881412
22.902742297361865,120.27289204044794,19.09407371634245
22.90271976689457,120.27290084007414,18.67480568403006
22.90269031309317,120.27290867357546,18.18540846860409
22.90266103493842,120.27291741626736,17.643945182085037
22.902641899163967,120.27293039703228,17.125288471877578
22.90263684853733,120.27295135147646,16.718664256572726
22.90263755940646,120.27297931855783,16.48394138014317
22.902632284294832,120.2730103808704,16.430024906218055
22.90261642582985,120.27303891428983,16.55418802046776
22.90259374056502,120.27306263565792,16.813981686830523
22.902570268174706,120.27308152921466,17.189447214603426
22.90254915201996,120.27309731353839,17.678090896844864
22.90253050120163,120.27311193024539,18.263719901740554
22.902513819910627,120.27312622257715,18.92508170223236
22.902498839964508,120.27314028471018,19.621452979743484
22.90248578784749,120.27315333625138,20.330542162656787
22.902474979580738,120.27316491223196,21.047706980586053
22.902466058301673,120.27317506111478,21.754273544013504
22.90245858546487,120.27318398621384,22.47895923751593
22.902451227012595,120.27319249624554,23.223534954428676
22.90244260647487,120.27320101241502,23.9899812040329
22.902432711285105,120.27320876718011,24.75282422780991
22.902423324042605,120.27321422878117,25.491875841736796
22.902417061596875,120.27321632508871,26.202726882815362
22.90241469436554,120.27321672915922,26.89247357362509
22.902414707788942,120.27321806693948,27.57327183198929
22.90241523415769,120.27322168362622,28.2778488509655
22.902415695694256,120.27322513715032,28.943460795462133
22.902419502371316,120.27322315010805,29.4994923902154
22.902463058171186,120.27319425925884,31.227206647753718
22.902536445769762,120.27316343347456,33.101158747076994
22.902620661912994,120.27313363244377,34.586663586258894
22.90271180853044,120.27310551591387,35.031407184124
22.902806133638265,120.27308425333396,33.8163430557251
22.902905336867725,120.27307006278707,32.127702294707305
22.902979659963222,120.27307424702664,30.382031540155413
22.90305516488936,120.27307584953061,30.02950992327929
22.903143122163463,120.27308206150722,30.187489872097974
22.903225923137335,120.27309545647638,30.181167060077193
22.90329808049534,120.27311061359573,30.163459933757785
22.903360959711694,120.27312356744393,30.109924744009973
22.903416677399946,120.27313099550013,29.985047851324083
22.903467274774105,120.27313183004638,29.815602271676067
22.90351267100816,120.27312718783892,29.6131168820858
22.903552752717186,120.27311847896874,29.43367479026318
22.9035875139035,120.27310739177281,29.246270906567577
22.903619584697203,120.27309394194725,29.074837589502337
22.903650458808848,120.27307887977169,28.842557823061945
22.903684680203014,120.27306099309854,28.6630326076746
22.903723953080632,120.27304155654011,28.515186505615713
22.903766997077575,120.27302170849467,28.3805534362793
22.90381223651486,120.27300219844271,28.25218716090918
22.90385869748178,120.27298327662662,28.126795263528827
22.90390579477511,120.27296498991089,28.002905011415486
22.903953064287837,120.27294736572374,27.880010435044767
22.90400004134175,120.2729304680643,27.75783144414425
22.90404634636872,120.27291441888899,27.63614215946198
22.904091883976903,120.2728994401169,27.514657069623475
22.904136645026963,120.27288597734446,27.392998504519465
22.904180313640538,120.27287480191795,27.270749039292337
22.904221362405764,120.2728670340781,27.14753100383282
22.90425613701548,120.27286397164565,27.02303720235825
22.90427905419101,120.27286655830426,26.89709054553509
22.904285605097098,120.27287445420633,26.76985547345877
22.904277333996248,120.27288542251473,26.641456671476366
22.904262628801472,120.27289619406254,26.51180740195513
22.90425069196929,120.27290428045956,26.38109017533064
22.90424603747583,120.2729088779763,26.248529774010184
22.90424841770216,120.27291050135513,26.106753499209884
22.90425477953819,120.27290989224441,25.970233886361125
22.904262797308018,120.27290790232506,25.83983831179142
22.90427070883304,120.27290513757494,25.714997559785846
22.90427684675529,120.27290209547388,25.59603689646721
22.904280410525885,120.27289910631119,25.48235638654232
22.90428119765137,120.2728963620523,25.374570421576504
22.904282968969305,120.27289320800071,25.269357673048976
22.90428590583844,120.27288965940495,25.166309751272205
22.904290054241056,120.27288577591659,25.065242338776592
22.904295901703723,120.27288152297864,24.965591640949253
22.904303309137138,120.2728769807978,24.8671281644702
22.904312094040144,120.27287224009817,24.769738066196442
22.904322110468943,120.27286738051102,24.673356292903424
22.904333181920062,120.27286248176354,24.57788887882233
22.904345165305752,120.27285761437629,24.483160541653636
22.90435778815949,120.27285288496121,24.38904478901625
22.904370899111,120.27284839715728,24.295431391835216
22.904384319086372,120.2728442854522,24.202304086804393
22.904398192030182,120.27284059412109,24.109556258916857
22.90441241912334,120.27283738620409,24.017144539356234
22.904426919825426,120.27283469587455,23.925029173374178
22.90444161530965,120.27283252358,23.833195704698564
22.904456420465934,120.27283084425788,23.741631484091283
22.904471243044078,120.2728296158388,23.6503437396884
22.9044859713728,120.27282878970003,23.559334278523924
22.90450047635895,120.27282831836969,23.468639241278172
22.904514623768506,120.27282816278337,23.378285733461382
22.90452828108106,120.27282828963081,23.2883026676178
22.904541332912476,120.27282867157973,23.198762325108053
22.90455369386706,120.27282928069044,23.109697232544423
22.90456530882319,120.27283008736094,23.02118328535557
22.90457616350064,120.27283105780147,22.93327469456196
22.904586267895564,120.27283215534518,22.84604012745619
22.904595664563004,120.27283334038424,22.759539216160775
22.904604410338223,120.27283457212796,22.673838820934296
22.904612572909436,120.27283581397343,22.58899134576321
22.90462022367772,120.27283702845465,22.505047387599948
22.904627434900974,120.27283818603352,22.42204128009081
22.904634269412142,120.27283926017695,22.340025427222255
22.90464078947296,120.27284023042567,22.25901067119837
22.904647044207376,120.27284108073195,22.17901688939333
22.904653075884823,120.27284179974728,22.100044081807138
22.90465892020584,120.27284238123798,22.022086827337745
22.904664602589214,120.27284282251878,21.945127055644992
22.904670141313623,120.27284312362163,21.869141275286676
22.90467555294411,120.2728432879351,21.794078889310363
22.90468084604881,120.27284332015846,21.71990195000172
22.904686025768598,120.27284322706879,21.64655624634028
22.904691092960284,120.27284301640229,21.573983953237537
22.904696047052667,120.2728426971738,21.502114596366884
22.904700885760906,120.27284227779082,21.430877701401712
22.904705605086544,120.2728417685469,21.36020279401541
22.90471019846068,120.27284117810527,21.29000855767727
22.904714660456833,120.27284051634392,21.220228132128717
22.904718983078084,120.27283979240558,21.150780200839044
22.90472316175476,120.27283901370673,21.08159067541361
22.904727187633128,120.27283818939011,21.01258546745777
22.90473105585792,120.27283732818289,20.943694102644923
22.904734756718582,120.27283643529577,20.874846106648448
22.904738287073474,120.27283551980754,20.8059782332778
22.904741639782483,120.27283458744044,20.7370236222744
22.904744809419128,120.27283364330924,20.667935290753842
22.90474779055693,120.27283269377553,20.59864999252558
22.904750578626214,120.27283174353853,20.529120744705203
22.904753168486106,120.27283079777699,20.459304178476337
22.904755557851775,120.27282986003932,20.38914969688654
22.904757741296734,120.2728289332985,20.318630194425584
22.90475971853538,120.27282802305297,20.247711337447168
22.904761482998815,120.27282713192407,20.17636059933901
22.904763036115057,120.27282626198968,20.104550874590874
22.904764373600045,120.27282541625478,20.032262285828594
22.90476549459697,120.27282459801201,19.959471341609955
22.90476639710659,120.2728238080286,19.88616900676489
22.904767081128917,120.2728230492136,19.81233540391922
22.904767544950317,120.27282232329327,19.737961497902873
22.904767787999585,120.27282163173811,19.663038253545764
22.904767810847932,120.27282097547518,19.587569284915926
22.90476761263854,120.27282035674223,19.511540135741235
22.904767191657786,120.27281977589088,19.43494719195366
22.904766551904128,120.27281923515888,19.35779406762123
22.904765692235152,120.27281873429047,19.280084376811985
22.904764613222063,120.27281827446846,19.20181450545788
22.904763314293657,120.27281785697157,19.12299890983105
22.90476179944839,120.27281748215142,19.043630361795426
22.90476006583022,120.27281715026376,18.96372693169117
22.904758119151236,120.27281686242746,18.88328139138222
22.904755955984182,120.27281661924991,18.802311811208728
22.90475358146994,120.272816420827,18.720821805238725
22.90475099560851,120.27281626719069,18.63881860160828
22.904748199256698,120.27281615901232,18.556314849555495
22.904745194699345,120.27281609670747,18.473326812386514
22.904741983650073,120.27281608040398,18.389849068999293
22.90473856896493,120.27281611064534,18.305901496767998
22.9047349497871,120.27281618743153,18.221487709760666
22.904731129543833,120.27281631002728,18.13662758535147
22.90472711080557,120.27281648031871,18.051328351676467
22.904722893857915,120.27281669635578,17.965604465007782
22.904718482984933,120.27281695957701,17.879454118311408
22.90471387704421,120.27281726969473,17.79289899599552
22.904709080605407,120.27281762658106,17.705948133230212
22.904704096524572,120.27281802994827,17.618612372219566
22.904698921374454,120.27281848008408,17.53090074813366
22.904693565151202,120.27281897724426,17.442824103176594
22.90468802471317,120.27281952040579,17.354400507688524
22.904682304344423,120.27282010950479,17.26562815463543
22.90467640490177,120.27282074543632,17.17653053545952
22.90467032781324,120.2728214276889,17.087109457194806
22.90466407879091,120.27282215498384,16.997381183147432
22.90465765669237,120.2728229283441,16.90735655552149
22.90465106494487,120.27282374706638,16.81703918838501
22.904644306118843,120.27282461140643,16.726445345044137
22.90463738307034,120.2728255192544,16.635582253634933
22.904630294942546,120.27282647243241,16.544464370429516
22.90462304716194,120.27282747049296,16.45310253763199
22.904615640870944,120.2728285120614,16.36149675524235
22.904608078068787,120.27282959755333,16.269663286566736
22.90460036189711,120.27283072597776,16.177623816013337
22.904592493783944,120.27283189736663,16.085369308412076
22.904584476014115,120.27283311191178,15.992919641137124
22.904576311443673,120.27283436811071,15.900280235290529
22.904568000929427,120.27283566660279,15.80746735417843
22.904559548755444,120.27283700642897,15.714482804834844
22.904550955492926,120.2728383866622,15.621341043531896
22.90454222628276,120.27283980848529,15.52805291247368
22.904533359411317,120.2728412688613,15.434623832762243
22.904524360019472,120.27284276938862,15.341062839567662
22.90451522810723,120.27284430856477,15.247389810264112
22.904505967673042,120.27284588728486,15.153597516715529
22.904496579288125,120.27284750391851,15.059712160915138
22.904487070092586,120.27284915702721,14.965732839345934
22.904477436373565,120.27285084798554,14.871664973109961
22.90446768298634,120.27285257490743,14.777533860683443
22.904457812501345,120.272854338656,14.683339502066374
22.90444782720342,120.27285613619432,14.589087318360807
22.90443772709256,120.27285796876915,14.494791765838864
22.904427518166457,120.27285983625258,14.400460976153614
22.90441720042511,120.2728617373979,14.306110309094192
22.90440677615336,120.2728636704469,14.211741571694613
22.904396249920868,120.27286563623072,14.117363799124957
22.904385619157196,120.27286763375837,14.022991447657349
22.904374892144872,120.27286966187901,13.928633552461864
22.904364067455877,120.27287172024101,13.834295534640551
22.90435314794625,120.27287380826894,13.739997271567585
22.904342137328843,120.27287592490788,13.645733342140915
22.90433103646048,120.2728780704775,13.551525430768729
22.90431984734038,120.27288024302777,13.457375344485046
22.904308575109425,120.27288244319806,13.363299346596003
22.904297217482785,120.27288466852684,13.269297437101605
22.90428578074375,120.27288691949366,13.17539310744405
22.904274266034736,120.27288919510748,13.081584550589325
22.90426267621179,120.27289149514456,12.9878916439116
22.904251012988535,120.27289381765486,12.89431438741088
22.9042392783642,120.27289616289413,12.800861816257239
22.90422747490923,120.27289853012711,12.707561035960914
22.904215605765266,120.27290091765951,12.614403914868833
22.904203673217147,120.27290332526758,12.521404005736114
22.90419167812168,120.27290575247179,12.428569440215828
22.904179625334148,120.27290819796146,12.33592190271616
22.904167516282563,120.27291066100135,12.24345506861806
22.904155352109346,120.27291314117586,12.151195139914753
22.90414313709856,120.27291563774976,12.05913669550419
22.90413087267823,120.27291814922057,11.96730141979456
22.904118562561212,120.2729206755563,11.875694733887912
