Latitude,Longitude,Altitude (m)
22.90436734972881,120.27360605927102,9.616420233011246
22.904371720988806,120.27360316598964,9.616820172905921
22.904376094780662,120.2736002471718,9.617221792578697
22.904380469996696,120.27359730256214,9.617624328494072
22.90438484679514,120.27359433241601,9.618028696894646
22.904389225175997,120.27359133660573,9.618434745073317
22.90439360403158,120.27358831608892,9.61884216761589
22.904397983045403,120.2735852704187,9.61925126993656
22.9044023607933,120.27358220016963,9.619661746621132
22.904406737908225,120.27357910527788,9.6200740557909
22.90441111359898,120.27357598625416,9.620487739324568
22.904415485966666,120.27357284309849,9.620903102636337
22.90441985564425,120.27356967632159,9.621319993019103
22.904424221365797,120.27356648605114,9.621738563179969
22.90442858186538,120.27356327279787,9.622158660411834
22.90443293666827,120.27356003656178,9.622580437421798
22.90443728529975,120.27355677804513,9.623003741502762
22.904441626019157,120.27355349756712,9.623428572654724
22.90444595914298,120.27355019506392,9.623855236291885
22.90445028261408,120.27354687123776,9.624283274292946
22.904454595483003,120.27354352653553,9.624712992072105
22.90445889711679,120.27354016114879,9.625144695043563
22.904463185933025,120.27353677552439,9.625577619671821
22.90446746208995,120.27353337017307,9.626012224078178
22.904471723213945,120.27352994522252,9.626448966383933
22.90447596867204,120.27352650163034,9.626886624932288
22.904480197989514,120.27352303952424,9.627325963258743
22.90448440815978,120.27351955935107,9.627767134070396
22.904488599974048,120.27351606149392,9.628210137367248
22.90449277090045,120.2735125467827,9.6286543623209
22.90449692046427,120.27350901540892,9.62910057246685
22.904501047399567,120.27350546775565,9.6295481569767
22.904505149332728,120.27350190446131,9.629997268557547
22.904509227213197,120.27349832603662,9.630448365330695
22.904513277717907,120.27349473311996,9.630900683760643
22.904517300213893,120.27349112628595,9.631354987382888
22.904521293435224,120.27348750578992,9.631810818076133
22.90452525659069,120.2734838721426,9.632268175840377
22.90452918730667,120.27348022617396,9.63272736608982
22.904533084633723,120.27347656820318,9.633187625288963
22.90453694714767,120.27347289886866,9.633650022387505
22.904540774057303,120.27346921848962,9.634113641142845
22.904544563780213,120.27346552795984,9.634578786969184
22.904548314101017,120.27346182804541,9.635045765280722
22.90455202407027,120.27345811842713,9.63551457607746
22.904555692580278,120.27345440063716,9.635984303116798
22.904559318523358,120.2734506747394,9.636456168055533
22.904562899842364,120.27344694143603,9.636929101943968
22.90456643448016,120.2734432014932,9.637403562903403
22.904569923069715,120.27343945516624,9.637879856348038
22.90457336228796,120.27343570322127,9.63835767686367
22.904576751501924,120.27343194604131,9.638836871743202
22.904580088496235,120.27342818477553,9.639317899107933
22.904583373112647,120.27342441929622,9.639799842715263
22.904586603610504,120.27342065081639,9.640283618807793
22.904589777616188,120.27341687971906,9.64076892197132
22.90459289449673,120.2734131063873,9.641255446791648
22.904595952669723,120.27340933171487,9.641743345975875
22.90459894991978,120.27340555614866,9.642232772231102
22.904601885930422,120.27340178058246,9.642723572850226
22.904604759277476,120.27339800527162,9.643215900540351
22.904607567903803,120.2733942305992,9.643709449887275
22.90461031038523,120.27339045809737,9.644204526305199
22.904612985772314,120.27338668751077,9.64470051896572
22.904615592324394,120.2733829196055,9.645198344111442
22.904618127826094,120.2733791555307,9.645697085499762
22.904620591644445,120.27337539503101,9.646197353959083
22.90462298298824,120.27337163925557,9.646698844075202
22.904625299800347,120.27336788884278,9.64720155584812
22.904627541131312,120.27336414430337,9.64770548927784
22.90462970381631,120.27336040595657,9.648210797071457
22.904631789279513,120.2733566749515,9.648717173814774
22.90463379309016,120.27335295154352,9.649224466800689
22.904635716988906,120.27334923637105,9.649733286857604
22.90463755670324,120.27334552981714,9.65024287045002
22.904639312707882,120.2733418328394,9.650753675699233
22.904640983262173,120.27333814582089,9.651265702605247
22.904642567100186,120.2733344694,9.65177864575386
22.904644062323026,120.27333080402364,9.652292810559272
22.90464546750652,120.2733271503302,9.652807891607283
22.904646782175938,120.27332350914965,9.653323888897896
22.90464800459063,120.27331988080115,9.653840649724007
22.904649133326423,120.27331626573162,9.654358021378517
22.904650167433868,120.27331266483483,9.654876920104027
22.904651105647037,120.27330907849382,9.655396429657936
22.90465194638351,120.27330550696396,9.655916855454445
22.904652688535602,120.27330195113903,9.656438044786453
22.904653330362656,120.2732984115936,9.656959844946861
22.904653871231705,120.2732948888384,9.657482561349868
22.904654310351546,120.27329138312876,9.658005888581275
22.904654645190316,120.27328789491162,9.658529368519783
22.904654875906253,120.27328442520842,9.659054070115088
22.904655000600464,120.27328097414683,9.659579382538794
22.904655018956465,120.27327754230143,9.6601053057909
22.904654928600635,120.27327413031063,9.660631534457206
22.904654729216492,120.27327073830212,9.661158373951912
22.904654419379863,120.27326736704198,9.661685518860816
22.904653997824813,120.27326401672174,9.662213121891021
22.90465346470959,120.27326068823518,9.662741183042526
22.904652818293535,120.27325738170998,9.66326970231533
22.90465205636127,120.27325409759302,9.663798068881034
22.90465117938752,120.27325083613968,9.664327351689337
22.90465018594811,120.2732475983714,9.664856481790542
22.904649075410077,120.27324438403284,9.665385917305946
22.90464784587452,120.27324119382622,9.665915200114249
22.90464649797441,120.27323802813463,9.666445093750953
22.904645029177882,120.27323488743684,9.666974529266357
22.90464343964318,120.2732317719563,9.667504422903061
22.904641727946128,120.27322868213992,9.668034316539764
22.904639892979038,120.27322561805153,9.668563446640968
22.90463793521663,120.27322258058489,9.669092882156372
22.9046358530765,120.27321956942082,9.669622470378876
22.90463364576743,120.27321658554884,9.67015129506588
22.90463131218174,120.27321362868167,9.670680272459983
22.90462885311063,120.27321069968117,9.671208486318587
22.904626265547513,120.27320779838773,9.671736700177192
22.904623550758327,120.27320492521632,9.672264303207397
22.90462070700241,120.27320208039039,9.672791906237602
22.904617734438013,120.27319926467602,9.673318440318107
22.90461463148271,120.27319647749866,9.673844821691512
22.90461139845299,120.27319371968822,9.674370134115218
22.904608034715885,120.27319099108513,9.674894988417625
22.90460453916371,120.27318829229584,9.675419231891631
22.90460091179646,120.27318562363959,9.675942711830139
22.90459715182293,120.27318298450987,9.676465122818946
22.90459325924312,120.27318037605583,9.676987228393553
22.904589232949345,120.27317779802212,9.677508112311363
22.904585073099838,120.2731752505683,9.678027621865272
22.904580778903394,120.27317273379018,9.678546520590782
22.90457635051826,120.2731702481346,9.679064350366591
22.90457178683674,120.2731677936016,9.679580347657202
22.904567088966527,120.27316537031885,9.680096039533614
22.904562254850482,120.27316297831827,9.680609898924827
22.904557284963328,120.27316061817443,9.68112238395214
22.90455217962155,120.27315828924891,9.681633952736854
22.904546937559218,120.27315599233972,9.682143536329269
22.904541559884017,120.2731537272873,9.682651898264885
22.9045360448553,120.27315149418736,9.683157969594001
22.904530393738987,120.27314929310376,9.68366312468052
22.904524605902118,120.27314712410035,9.684166294574737
22.904518680395245,120.27314498736864,9.684667937397956
22.904512618800783,120.27314288303633,9.685167136907577
22.904506418903352,120.27314081084803,9.685665114760399
22.90450008370954,120.27313877141025,9.686160496592521
22.90449360989627,120.27313676418034,9.686654351353646
22.904486999204206,120.2731347893179,9.68714606821537
22.904480251791586,120.27313284733364,9.687635036349295
22.904473366075994,120.27313093768494,9.688122019290924
22.904466344589295,120.27312906104213,9.688606864333153
22.904459185907317,120.27312721673485,9.689089418768882
22.90445188987182,120.27312540517809,9.689569224476813
22.904444457115762,120.27312362627609,9.690046586871146
22.904436887955633,120.27312188037996,9.690521200537681
22.90442918207495,120.27312016707475,9.690993218183516
22.904421339315466,120.27311848645621,9.691462487101555
22.90441336110136,120.27311683884356,9.691928854584694
22.904405246008455,120.2731152238218,9.692392931461333
22.90439699514444,120.27311364155058,9.692853343367576
22.904388608509322,120.27311209228523,9.69331161737442
22.90438008657782,120.27311057557887,9.693766226410865
22.904371429508174,120.27310909184646,9.694217781305312
22.904362636983905,120.27310764080075,9.694665671229362
22.904353709321494,120.27310622269705,9.695110507011414
22.904344647312147,120.27310483724811,9.695552594065665
22.904335451114108,120.27310348461354,9.69599071073532
22.90432612041089,120.2731021647614,9.696425467848778
22.90431665583546,120.27310087785129,9.696856407284736
22.904307057862546,120.27309962343634,9.697283987164496
22.90429732617566,120.27309840209111,9.69770774936676
22.904287461882497,120.2730972133687,9.698127541184425
22.904277464191843,120.27309605746066,9.698543973445892
22.904267334053152,120.27309493430313,9.698956435322762
22.904257071624667,120.27309384389612,9.699364926815033
22.904246677222865,120.27309278623962,9.699769447922707
22.904236150847748,120.27309176155708,9.700170151352882
22.904225492974042,120.27309076959314,9.70056657898426
22.904214703759987,120.27308981034778,9.70095873081684
22.904203783522064,120.27308888394872,9.701346912264823
22.904192731943795,120.27308799030016,9.701730817914008
22.904181550132865,120.27308712965748,9.702110447764396
22.904170238247517,120.27308630163763,9.702486107230186
22.904158795338304,120.27308550655982,9.702857185482978
22.904147222512915,120.27308474451982,9.703223987936973
22.90413551992959,120.27308401538993,9.70358682000637
22.904123687113607,120.2730833190744,9.70394476544857
22.904111725647375,120.27308265579666,9.704298740506172
22.904099633948487,120.27308202552481,9.704648134350776
22.90408741280815,120.27308142813115,9.704992946982383
22.90407506270108,120.27308086409451,9.705333789229392
22.904062582836076,120.27308033306373,9.705670202970504
22.904049974162586,120.27307983523038,9.706002340912818
22.904037236364125,120.2730793705944,9.706330203056336
22.904024369124212,120.27307893953889,9.706653942108154
22.90401137275933,120.27307854152119,9.706973558068276
22.903998246794757,120.27307817708392,9.707289050936698
22.90398499170521,120.27307784619519,9.707600878834723
22.903971606541248,120.27307754869538,9.707908583641052
22.903958092252317,120.27307728522291,9.708212776184082
22.903944447730726,120.27307705526705,9.708513456463812
22.903930673134717,120.27307685914701,9.708810624480247
22.90391676846429,120.27307669711816,9.709104432940482
22.90390273308648,120.27307656918046,9.70939549267292
22.903888566843044,120.27307647527012,9.709683498263358
22.903874269417503,120.27307641580208,9.709969060540198
22.903859839860406,120.27307639068059,9.71025248491764
22.903845278646475,120.27307640006524,9.710533771395683
22.903830584826267,120.27307644417948,9.710813683509826
22.903815758083294,120.27307652331059,9.71109237396717
22.903800797942832,120.27307663729898,9.711370453596114
22.903785703930165,120.27307678630424,9.71164807510376
22.90377047493759,120.27307697061367,9.711926002025603
22.90375511064864,120.27307719041879,9.712204692482947
22.90373961074682,120.27307744597496,9.712484910011291
22.90372397380796,120.27307773728216,9.712767265439034
22.903708199515577,120.2730780645958,9.713052522301673
22.90369228731583,120.2730784281712,9.713341444134711
22.903676235705426,120.27307882794454,9.713634794473647
22.903660045238205,120.27307926445847,9.71393425309658
22.903643713540546,120.27307973780876,9.714240278124809
22.903627240454213,120.27308024805923,9.714554091215133
22.903610625267117,120.2730807955291,9.714877524852753
22.903593866871567,120.27308138053758,9.715211495280265
22.90357696439724,120.27308200340384,9.715558140397071
22.903559916499077,120.27308266400026,9.71591883456707
22.903542723018845,120.27308336277368,9.71629571568966
22.903525382215882,120.27308410001139,9.716690768957138
22.90350789424843,120.27308487600068,9.717106743097304
22.90349025745496,120.27308569083733,9.717545776009558
22.90347247136074,120.27308654477669,9.718011532664299
22.903454534858085,120.27308743801028,9.718506303668022
22.90343644747227,120.27308837092116,9.719034212112426
22.90341820841209,120.27308934354123,9.71959907567501
22.90339981704458,120.27309035625355,9.720205322861672
22.90338127336973,120.27309140905811,9.720857687592506
22.903362576912834,120.2730925022103,9.721561514616011
22.903343726645303,120.27309363609315,9.722322912216185
22.903324723595723,120.27309481051512,9.723148599505423
22.90330556752672,120.2730960257316,9.724046517252921
22.90328625859654,120.27309728161491,9.725024453520774
22.903266797912874,120.27309857835655,9.726092486977576
22.903247186108686,120.2730999158927,9.727260696291923
22.903227424924633,120.27310129377645,9.728541298031807
22.903207515310157,120.27310271235895,9.72994803583622
22.90318745979713,120.27310417084217,9.731495264172553
22.903167260838284,120.27310566906651,9.7332010024786
22.903146921835816,120.27310720629781,9.735084644556045
22.90312644579631,120.27310878205724,9.73716741669178
22.903105837467002,120.27311039522759,9.739475126385688
22.903085101990747,120.27311204469164,9.742035260915756
22.90306424553895,120.27311372914065,9.744879888772964
22.903043274401714,120.27311544704243,9.748045354247093
22.90302219672846,120.27311719629022,9.75157181930542
22.903001021420277,120.27311897426652,9.755504332542419
22.90297975884197,120.27312077848154,9.759895119786261
22.90295842038692,120.27312260548786,9.764800529956817
22.902937019584762,120.27312445119964,9.77028408920765
22.902915570954146,120.27312631095647,9.77641344678402
22.90289409130822,120.2731281793957,9.783264192700386
22.902872599517266,120.27313005013322,9.790914818406105
22.902851116587833,120.2731319156996,9.799446105957031
22.902829665939638,120.2731337676678,9.80893853199482
22.902808274078122,120.27313559614247,9.819467228412627
22.902786970475734,120.27313738956835,9.831092819929122
22.902765787532402,120.27313913517717,9.84385501039028
22.90274476215793,120.27314081793439,9.857756548523902
22.90272393466431,120.27314242082632,9.872747193694114
22.902703350328352,120.27314392473254,9.888708750605582
22.9026830589961,120.27314530788318,9.905432163238524
22.9026631162894,120.27314654576328,9.922606978058814
22.902643583724583,120.27314761079343,9.939813097834586
22.902624529820176,120.27314847239373,9.956536968588829
22.90260602978039,120.27314909624954,9.97220716035366
22.90258816761163,120.273149444535,9.986258046030997
22.90257103655762,120.27314947533834,9.998221425652503
22.90255283203362,120.27315378484009,10.126320998072623
22.902530685845313,120.2731546104659,10.1458426156044
22.902505861975424,120.27315570144748,10.1545991461277
22.90248111298338,120.2731550657172,10.12666672694683
22.902460859134557,120.27315418994418,10.155629766345024
22.90244379885401,120.27314767252783,10.198148309588431
22.90242908671736,120.27313067188227,10.15350927555561
22.90242816788876,120.27310816927786,10.194057286381721
22.902448987153832,120.27308104387122,10.20056291425228
22.902500438192643,120.27305694795105,10.292349196434019
22.902563717893603,120.27302761048013,10.230649114370346
22.902627396046366,120.27299487273325,10.158399415016174
22.90267073013294,120.27295230469264,9.966055202126503
22.902707359492503,120.27291153627048,9.966090019345282
22.90273212508011,120.27287806173278,9.970383226752281
22.902747934976805,120.27286172944034,9.96497128713131
22.902754773615584,120.27285935244242,9.992693428635597
22.902754994797476,120.27286213732151,9.995469338297843
22.90275871402385,120.27286412651628,10.087597684383391
22.90275776398214,120.27285871179637,10.069419278502464
22.9027609264362,120.27285179189344,10.053768022418021
22.902768386607576,120.27284457986931,10.023918365597725
22.902791128742827,120.27284840413036,10.03604453098774
22.902824030251864,120.27287069561206,10.05078534734249
22.902854359151597,120.27291559168441,10.036719038248062
22.902868002446816,120.2729691009188,10.05298478770256
22.90285581833496,120.27301552656151,10.053217971444129
22.90282839130529,120.27304968860466,10.069628945350646
22.902795726248442,120.27307571332587,10.042438071846961
22.90276962021785,120.27310001280358,10.017863834500313
22.902759482997855,120.2731186475913,10.006796845555305
22.90276826911335,120.27312702575402,9.977745846867561
22.902792357289375,120.27312893578576,9.956966380953789
22.90281933036407,120.273132101222,9.940418734192848
22.90283776354687,120.27313902495541,9.891583003640175
22.902848283987936,120.27314635302682,9.880438134074211
22.90284856787298,120.27315308044865,9.86914147365093
22.90283778633363,120.27316382785258,9.81955182814598
22.902827522164486,120.27318530076293,9.820843882918357
22.902825099607576,120.27321362133993,9.810480262875556
22.90283028316016,120.27324593965038,9.821211448907851
22.902836164913285,120.2732783452317,9.8166587921381
22.902841229507906,120.27331037970436,9.834802228093146
22.902845249669834,120.27334067654832,9.88712242925167
22.902847657787216,120.27336772847379,9.944822196125983
22.902847355743976,120.27339053623894,10.001901208639145
22.902843721295426,120.27340884320232,10.051958595991135
22.902837427996015,120.27342303534756,10.084765425801276
22.902829535113575,120.27343400734469,10.106702258825301
22.902821395097654,120.27344283300202,10.118113296866417
22.90281436866591,120.273450565571,10.11948399579525
22.902809537952056,120.27345794905652,10.115399997115135
22.902807482594277,120.2734652924498,10.107869704604148
22.90280793132728,120.273472591665,10.099088435530662
22.902809832755754,120.27347973140498,10.090602043867111
22.902812349189368,120.27348668664399,10.082753051638603
22.902814978607328,120.27349343784667,10.076138849020003
22.90281750568267,120.27349992787515,10.069523119330405
22.902819957197757,120.27350612410663,10.062691461801528
22.90282228864719,120.27351195267686,10.054802613019943
22.902824458057445,120.27351730090619,10.047140686988831
22.90282644643956,120.27352214453501,10.039711791992186
22.902828243230914,120.27352647034817,10.032506612896919
22.902829843842515,120.2735302761751,10.025508810043334
22.902831249500732,120.27353356839987,10.018698073387146
22.902832466495656,120.27353635959923,10.012055772662162
22.902833504559137,120.27353866637186,10.005566942572592
22.902834378684542,120.2735405084447,9.999217992186546
22.902835105012496,120.27354190688531,9.993000064492225
22.902835701345154,120.27354288301665,9.986907662034033
22.90283618797697,120.27354345765093,9.980935592770576
22.902836585518887,120.27354365121732,9.975080802559852
22.90283691315767,120.27354348229362,9.969343749523162
22.90283719205811,120.2735429682446,9.963721837639808
22.902837440417965,120.27354212528591,9.95821521961689
22.90283767679103,120.27354096759032,9.952823131918906
22.902837917436617,120.27353950862829,9.94754435288906
22.90283817849534,120.27353776072117,9.942378271698951
22.902838473536402,120.27353573427507,9.93732412481308
22.90283881557515,120.27353343944073,9.932379163503647
22.902839215174208,120.27353088528359,9.927542471528053
22.902839682144535,120.27352807997535,9.9228103839159
22.902840224635558,120.27352503136842,9.91818274796009
22.902840849491223,120.27352174623002,9.913654677033424
22.90284156244778,120.27351823158263,9.909224644064903
22.9028423674217,120.27351449368271,9.904889442205429
