Latitude,Longitude,Altitude (m)
22.904504867048495,120.27487241519434,18.731324957430363
22.904506637862966,120.27487454059786,18.7340860144496
22.904508395011984,120.2748766528959,18.736852347373965
22.9045101382678,120.27487874946732,18.73961868029833
22.904511867858165,120.27488083216235,18.74238325458765
22.904513582416534,120.27488290098096,18.74515134614706
22.90451528376497,120.27488495438133,18.7479217825532
22.904516970992443,120.27488699328858,18.75068987411261
22.904518643871192,120.27488901770266,18.753460310518744
22.904520302856735,120.27489102700689,18.75623426419497
22.904521947721314,120.27489302197216,18.759005286812783
22.904523578009414,120.27489500182756,18.76177924048901
22.904525193721035,120.27489696672728,18.76455612522364
22.904526794628417,120.27489891682549,18.767332423746588
22.90452838300914,120.27490085196801,18.770109308481217
22.904529955219083,120.27490277153812,18.772889124274258
22.904531513535815,120.27490467615254,18.77566718143225
22.904533056592797,120.2749065655029,18.77844934207201
22.904534585756572,120.27490843974341,18.781231502711776
22.904536100571626,120.27491029810312,18.784013663351537
22.90453759967141,120.27491214181552,18.786798168838025
22.904539084422478,120.27491396933877,18.789582674324514
22.904540554597062,120.27491578190634,18.79237069708109
22.904542009511896,120.27491757843895,18.795156374990942
22.90454344985025,120.27491935939912,18.797944397747518
22.904544875156613,120.27492112463271,18.800735937774185
22.904546285658736,120.27492287460224,18.80352513295412
22.90454768067335,120.27492460838263,18.80631667298079
22.90454906065597,120.27492632597388,18.80911055785418
22.90455042537884,120.27492802783853,18.811903856515887
22.904551775980742,120.27492971428494,18.814698327600958
22.904553109728592,120.27493138361712,18.8174969021678
22.90455442844445,120.27493303706851,18.82029137325287
22.904555732583827,120.27493467448492,18.823090534031394
22.904557021235696,120.27493629617476,18.82589086723328
22.904558293489025,120.27493790059617,18.82868885558844
22.904559550938114,120.27493948929097,18.83149094742537
22.904560793355213,120.27494106148828,18.834293039262295
22.904562019601528,120.27494261672553,18.83709630352259
22.904563230360335,120.27494415577361,18.839900740206243
22.904564425403876,120.27494567817003,18.84270634931326
22.90456560473215,120.27494718360637,18.84551195842028
22.90456676788964,120.27494867300776,18.848321084797384
22.904567916242897,120.27495014514072,18.85112903875113
22.904569047742097,120.27495160093035,18.85393699270487
22.90457016375379,120.27495303883484,18.856748463928703
22.904571263594697,120.2749544602418,18.85955876272917
22.90457234726483,120.27495586438036,18.86237375122309
22.904573415447445,120.27495725171303,18.865187567293646
22.90457446700377,120.27495862146893,18.868001383364202
22.904575502161553,120.27495997426476,18.870816958069803
22.904576522287343,120.27496131010054,18.873632532775403
22.90457752442029,120.27496262789697,18.876449866116047
22.90457851152124,120.27496392873336,18.87926954430342
22.904579482223657,120.27496521214714,18.88208922249079
22.90458043584426,120.27496647798414,18.88490890067816
22.904581373521836,120.27496772562762,18.88773209613562
22.904582294345364,120.2749689566194,18.890553532958034
22.90458319922586,120.27497016910931,18.89337555599213
22.904584086796792,120.27497136402242,18.896203441143037
22.9045849584247,120.27497254105039,18.899026636600496
22.90458581228752,120.2749737001932,18.90185217690468
22.90458665043508,120.27497484175923,18.90468064826727
22.90458747195634,120.27497596482338,18.90750853341818
22.90458827616803,120.27497707015657,18.910335246145728
22.904589063525666,120.27497815683368,18.913166648566726
22.904589833345977,120.27497922593402,18.91600039583445
22.90459058722326,120.27498027606991,18.918830039620403
22.90459132265219,120.27498130816649,18.92166202825308
22.90459204259361,120.274982321607,18.924496947944167
22.90459274454219,120.27498331700816,18.927331867635253
22.904593429636712,120.27498429406164,18.93016678732634
22.904594097877183,120.27498525184232,18.933005810499193
22.90459474812481,120.27498619142949,18.93584073019028
22.904595381062872,120.27498711236059,18.93867740851641
22.90459599783015,120.27498801417309,18.94151819032431
22.90459659614907,120.27498889763788,18.944358385920527
22.904597177158422,120.27498976182989,18.947198581516744
22.90459774108596,120.27499060721165,18.950040535748006
22.90459828724842,120.27499143332062,18.95288248997927
22.90459881564579,120.27499224061934,18.95572444421053
22.904599325822566,120.27499302910782,18.9585693295002
22.904599818689768,120.27499379755258,18.961417732059957
22.90460029470292,120.27499454749548,18.964261444926265
22.904600752039954,120.27499527724048,18.967106330215934
22.90460119206742,120.27499598817525,18.96995531898737
22.90460161387429,120.27499667999139,18.972801962912087
22.904602017688315,120.27499735176384,18.975650951683523
22.904602404192772,120.2749980042635,18.978501699090007
22.90460277111009,120.27499863641108,18.981351274073127
22.90460312185662,120.27499924974842,18.98420260769129
22.904603453927038,120.27499984335041,18.98705628615618
22.90460376663807,120.27500041629199,18.989906447350982
22.90460406295056,120.2750009696524,18.99276012581587
22.904604340131424,120.2750015029691,18.995616735339166
22.90460459886393,120.27500201701302,18.998469827592373
22.90460483983135,120.27500251024232,19.001324092268945
22.90460506212266,120.27500298342791,19.004183046638968
22.904605265510096,120.2750034365698,19.007039069950583
22.90460545022142,120.27500386920545,19.009896265685562
22.904605618306444,120.27500428225993,19.012755806267265
22.904605766121055,120.27500467434561,19.01561182957888
22.90460589525955,120.27500504607923,19.018471956372263
22.904606006405206,120.27500539668986,19.021334428012374
22.904606098874748,120.27500572756516,19.024193968594076
22.90460617266817,120.27500603747167,19.027054681599143
22.904606226874453,120.27500632671773,19.029917739450934
22.90460626286014,120.27500659499499,19.032780797302724
22.904606279941948,120.27500684292019,19.035642682731154
22.90460627811989,120.2750070698766,19.03850808542967
22.904606256938443,120.27500727524748,19.04137407433987
22.90460621639761,120.27500746042045,19.04423771840334
22.904606157863935,120.27500762400793,19.047101948678495
22.90460607951536,120.27500776678076,19.049969696223737
22.90460598226291,120.2750078878139,19.052835685133935
22.904605865195563,120.2750079881866,19.055701087832453
22.9046057294521,120.27500806651123,19.05857118022442
22.90460557434925,120.27500812402124,19.0614377553463
22.904605399203742,120.27500816009992,19.064307261526587
22.90460520515436,120.27500817443887,19.067177940130236
22.90460499242887,120.27500816703811,19.070044515252114
22.90460475943296,120.27500813851438,19.072914021432403
22.90460450639439,120.2750080877884,19.075785872459413
22.904604234679706,120.2750080153227,19.0786553786397
22.90460394337788,120.27500792127147,19.081527815878392
22.904603631577878,120.27500780548053,19.084399080693725
22.904603300646247,120.27500766748734,19.087271517932418
22.904602949899715,120.27500750821699,19.090142782747748
22.904602579110524,120.27500732581927,19.09301521998644
22.90460218873419,120.27500712152768,19.095888829648498
22.904601778542954,120.27500689518801,19.098758922040464
22.904601348309058,120.27500664680026,19.101634290337564
22.904600897804748,120.27500637543935,19.10451083105803
22.904600427485533,120.27500608233872,19.10738209587336
22.90459993644039,120.27500576611075,19.110255705535415
22.904599426491373,120.27500542829725,19.113132832467556
22.904598895133155,120.27500506704803,19.116005855917933
22.904598343960032,120.27500468375074,19.11888005179167
22.904597773427525,120.27500427748028,19.121757178723815
22.904597181485816,120.27500384839082,19.124629615962508
22.904596569501443,120.27500339694494,19.12750557047129
22.9045959370189,120.27500292190916,19.130383283615114
22.904595285404724,120.27500242451694,19.133254548430443
22.904594610787047,120.27500190384319,19.136131675362588
22.904593917948766,120.27500136019626,19.139008216083052
22.90459320324577,120.27500079311362,19.14188299816847
22.904592468500113,120.275000203212,19.144760125100614
22.904591713256284,120.27499958987465,19.14763666582108
22.904590936147734,120.2749989531016,19.15051203411818
22.904590139679797,120.2749982932012,19.153386229991916
22.904589322030414,120.27499760986507,19.156262770712377
22.904588482288556,120.27499690309324,19.159138139009478
22.90458762318731,120.27499617226896,19.16201467972994
22.904586742449105,120.27499541816314,19.16489004802704
22.904585841212725,120.27499464031325,19.16776483011246
22.904584918794896,120.27499383825672,19.170639025986198
22.90458397542338,120.27499301338122,19.17351498049498
22.90458300973163,120.27499216352817,19.17639034879208
22.904582024224982,120.27499129054777,19.179263958454133
22.904581016853612,120.27499039336075,19.182138154327873
22.90457998875631,120.27498947242964,19.185014108836654
22.904578939249806,120.27498852729191,19.187887132287027
22.904577868106337,120.27498755702246,19.1907601557374
22.90457677532591,120.27498656300892,19.19363493782282
22.90457566273058,120.2749855454055,19.19650678884983
22.90457452667623,120.27498450282452,19.199378053665164
22.904573370123707,120.27498343588275,19.202249904692174
22.904572191706464,120.2749823442718,19.20512292814255
22.904570991880014,120.2749812286084,19.207992434322836
22.904569770872122,120.27498008796746,19.210863699138166
22.90456852708848,120.2749789221948,19.2137349639535
22.904567262351147,120.27497773267807,19.216605056345465
22.904565976204612,120.27497651741288,19.21947397631407
22.90456466705457,120.2749752777869,19.222343482494356
22.90456333786187,120.27497401349171,19.22520771276951
22.904561984526875,120.27497272375646,19.228076632738116
22.904560611149222,120.27497140904366,19.230944966495038
22.904559214540306,120.27497006981588,19.233808024346832
22.904557797205456,120.27496870499382,19.236672254621986
22.90455635618383,120.27496731488587,19.239538829743864
22.90455489443627,120.27496589995455,19.24240247380734
22.904553409229692,120.2749644591206,19.245264945447445
22.90455190306942,120.27496299315493,19.248126830875876
22.90455037436116,120.274961501595,19.25098637145758
22.904548822877153,120.2749599844408,19.25384591203928
22.90454724998394,120.27495844184651,19.256706038832668
22.904545654770494,120.27495687365794,19.259564406991007
22.904544036098027,120.2749552800293,19.262421016514303
22.904542395105324,120.27495366018965,19.265275867402554
22.90454073247566,120.27495201475574,19.26813540798426
22.904539046614733,120.27495034311083,19.270986741602425
22.904537338205817,120.27494864602585,19.273837489008905
22.90453560770442,120.27494692303821,19.276691167473796
22.904533853971763,120.27494517368541,19.279540156245233
22.904532077691112,120.27494339812161,19.282388558804993
22.90453027886247,120.2749415963468,19.285238719999793
22.90452845725808,120.27493976897775,19.288081846654418
22.904526612650187,120.27493791508931,19.290926145732406
22.904524745038785,120.27493603437316,19.29377044481039
22.904522854423874,120.27493412698345,19.296611812829973
22.904520941260973,120.27493219430784,19.299454353272917
22.904519006005597,120.27493023465033,19.302294548869135
22.904517046152414,120.27492824801091,19.305130640983585
22.904515063295722,120.27492623516048,19.30796614688635
22.90451305766328,120.27492419532815,19.3108022390008
22.90451102948285,120.2749221286681,19.313632468998435
22.904508977615638,120.27492003564286,19.31646211278439
22.904506902517166,120.2749179157899,19.319292928993704
22.904504804642944,120.27491576895503,19.32211905550957
22.904502682854183,120.27491359436733,19.32494283717871
22.90450053783416,120.27491139356863,19.32776661884785
22.904498369355117,120.27490916532548,19.330589228093626
22.904496177189294,120.27490691087135,19.333408906280997
22.904493962475478,120.27490462804765,19.336224480986598
22.904491723163854,120.27490231839623,19.339042986750606
22.904489461076484,120.27489998114616,19.34185504418612
22.904487175302332,120.27489761676001,19.344664170563224
22.904484865613647,120.27489522539196,19.347475641787053
22.904482532465938,120.27489280596271,19.350278906047347
22.904480175403695,120.27489035878064,19.353082170307637
22.90447779465467,120.27488788477085,19.355887779414655
22.904475389991113,120.2748853823915,19.358684009134773
22.904472961413017,120.27488285303025,19.361479066431524
22.904470509375898,120.27488029545363,19.36427529615164
22.904468033196487,120.27487771027837,19.367065663754943
22.9044655333303,120.27487509750448,19.36985368651152
22.904463008638544,120.27487245589847,19.37264229547978
22.904460461626552,120.27486978715639,19.37542386990786
22.904457889105725,120.2748670905073,19.378203685700896
22.90445529175933,120.27486436487193,19.38098232907057
22.904452672092702,120.2748616117921,19.38375862759352
22.904450027600507,120.27485883095946,19.386525546729565
22.90444735896602,120.27485602098635,19.38929481071234
22.904444665733724,120.2748531826437,19.39206290227175
22.904441948131375,120.2748503167024,19.394823959290985
22.90443920661449,120.27484742208318,19.397583843886853
22.904436440727554,120.27484449894024,19.400339038789273
22.904433650015054,120.2748415477361,19.403090716421605
22.904430834476987,120.2748385675457,19.405840635418894
22.904427994796624,120.274835558369,19.408587037146095
22.90442513097397,120.27483252128532,19.41132874917984
22.904422242325747,120.27482945521534,19.41406518530846
22.90441932907972,120.27482636046746,19.416801621437074
22.90441639100812,120.2748232367333,19.419531023025513
22.904413429249747,120.27482008462958,19.422258665978912
22.904410441527016,120.27481690323121,19.424982791662217
22.904407429661994,120.27481369269239,19.427698710381986
22.90440439319916,120.2748104539382,19.430415215313438
22.904401331910766,120.27480718542682,19.433127616763116
22.904398244658015,120.27480388762079,19.435835328519346
22.90439513326297,120.27480056113686,19.43853717815876
22.90439199772563,120.27479720582082,19.441236682951452
22.90438883599618,120.27479382059342,19.44393149805069
22.904385649213406,120.27479040607136,19.446619864821436
22.90438243828834,120.27478696287139,19.449305886745456
22.904379201626675,120.27478348960585,19.451986046552662
22.904375940822717,120.27477998766241,19.454660344243052
22.904372653826652,120.27477645596178,19.457331710875035
22.904369342005015,120.27477289450397,19.460001905083658
22.904366004674543,120.27476930313476,19.462661547482014
22.904362642290746,120.2747656826251,19.465317086398603
22.904359254625867,120.27476203235825,19.467971452891828
22.90435584145215,120.27475835279677,19.47061585378647
22.90435240322511,120.27475464316971,19.473257909834388
22.904348939261475,120.27475090363129,19.475895862400534
22.904345450927785,120.2747471349524,19.478526194214822
22.904341935718715,120.27474333543705,19.481151836335663
22.90433839545632,120.27473950616451,19.483772202551368
22.90433482945733,120.27473564728895,19.486385534226898
22.90433123886053,120.27473175819367,19.488993003785613
22.904327621616105,120.274727839187,19.49159695607424
22.904323979090595,120.27472389026896,19.494192701399328
22.904320310600735,120.27471991082282,19.496782584607605
22.904316616374278,120.2747159014653,19.499367778122426
22.904312897550014,120.27471186188805,19.50194886815548
22.90430915139485,120.27470779178269,19.504517647743228
22.90430538018636,120.27470369176596,19.507083496272568
22.90430158346903,120.27469956091277,19.509645241320136
22.90429775987632,120.2746954001482,19.512197606980802
22.904293911458048,120.27469120885553,19.5147458691597
22.90429003593663,120.27468698734312,19.517287096798423
22.90428613490637,120.27468273530259,19.519818945050243
22.904282207911763,120.27467845211726,19.522346103608612
22.904278255636072,120.27467413871217,19.52486915868521
22.904274276484998,120.27466979524152,19.527378144681457
22.904270270914054,120.27466542031769,19.529883613407613
22.904266240517543,120.27466101532829,19.53238380622864
22.904262182790138,120.27465657934825,19.53487227481604
22.904258098415102,120.27465211268591,19.537355467498305
22.904253988758988,120.27464761534131,19.53983338427544
22.904249852683,120.27464308669768,19.54230133545399
22.904245689959392,120.27463852783431,19.544762838304045
22.904241500815914,120.27463393782611,19.54721554797888
22.90423728570808,120.27462931698145,19.54966122311354
22.90423304418038,120.27462466560867,19.55209517401457
22.904228776232813,120.27461998293688,19.554524435222152
22.904224481637616,120.27461526912028,19.55694783431292
22.904220161078065,120.27461052462137,19.559358336746694
22.90421581318762,120.27460574805254,19.56176063221693
22.9042114388773,120.27460094157234,19.56415823799372
22.90420703860263,120.27459610317639,19.56654411953688
22.904202610769307,120.27459123425234,19.5689217941165
22.904198157199385,120.27458633356673,19.571293020367623
22.90419367652632,120.27458140204466,19.57365193617344
22.904189169661144,120.27457643937775,19.576000300168992
22.904184635237314,120.27457144464091,19.578343974471096
22.904180074165858,120.27456641922178,19.58067592453957
22.904175486446775,120.27456136234947,19.58299790900946
22.90417087253558,120.27455627464069,19.585314617574216
22.90416623106573,120.27455115517034,19.58761608463526
22.904161562948254,120.27454600455516,19.589910517156127
22.90415686772764,120.27454082248678,19.59219498407841
22.904152145631638,120.27453560804011,19.59447007161379
22.90414739620474,120.27453036275698,19.596732848703862
22.904142620585727,120.27452508617482,19.598986246407033
22.90413781740806,120.27451977844784,19.60123260957003
22.904132987582766,120.27451443880511,19.603463731229308
22.90412813019882,120.27450906709247,19.605686645925047
22.90412324571173,120.27450366454335,19.607900181233884
22.9041183341215,120.27449823023267,19.610100819885734
22.904113395428126,120.27449276462296,19.612292079150677
22.904108429176098,120.27448726648079,19.61447278660536
22.9041034365042,120.27448173765634,19.616638252556328
22.90409841604589,120.27447617629942,19.618795511543752
22.90409336825668,120.27447058348929,19.620943391144277
22.90408829359209,120.27446495938015,19.623075443029407
22.904083191141083,120.27445930320108,19.625199287950995
22.90407806204245,120.274453615723,19.627310822427276
22.904072904474134,120.27444789679173,19.629409460246563
22.90406772025819,120.2744421450196,19.631494028985504
22.904062508939106,120.27443636225685,19.633571563184262
22.904057268922575,120.27443054757833,19.635632683455945
22.90405200225842,120.27442470098408,19.637684424340726
22.904046708035608,120.27441882293662,19.639722096145157
22.904041385798628,120.27441291220252,19.641747457504273
22.904036036914018,120.27440697063196,19.643759922206403
22.90403065910421,120.27440099714563,19.645758904039862
22.904025254646776,120.27439499128103,19.647746747851375
22.90401982217517,120.27438895380904,19.64971876394749
22.904014362372664,120.27438288472968,19.65168022823334
22.90400887432823,120.27437678358038,19.65362938207388
22.90400335872514,120.27437065066952,19.6555603633523
22.903997815563397,120.27436448599711,19.657480792820454
22.903992243931963,120.27435828910058,19.65938773941994
22.903986645652907,120.2743520604425,19.661277099668983
22.903981018448647,120.27434580033122,19.663158839166165
22.90397536414125,120.27433950768746,19.665025337159637
22.90396968159192,120.27433318389886,19.666870731532576
22.903963971711693,120.27432682819453,19.66870850515366
22.903958233134023,120.27432043980355,19.67053220969439
22.903952466997698,120.27431402026772,19.672338327884678
22.903946672619444,120.27430756866198,19.67412861835957
22.903940850227016,120.27430108544885,19.675906598389155
22.903934999592664,120.27429456985743,19.6776699231267
22.903929121171895,120.274288022967,19.679414489090448
22.903923215647986,120.27428144416082,19.681143813550477
