Latitude,Longitude,Altitude (m)
22.90376322453023,120.2731224940997,24.726322266936304
22.903756042438616,120.27312665765622,24.651745973110202
22.903748389385495,120.27313082658331,24.577456997692586
22.90374027479581,120.27313499381613,24.503428235173228
22.903731708094494,120.27313915203406,24.429672334790233
22.903722696707266,120.27314329439608,24.356151348829272
22.903713252058303,120.27314741380536,24.282861663222317
22.903703383286935,120.27315150342082,24.209805085003378
22.90369309867569,120.27315555608175,24.136950894594197
22.90368240964874,120.27315956494705,24.06430451309681
22.903671324774216,120.2731635219609,23.991864133477215
22.903659854619473,120.27316742098552,23.919600843191148
22.90364800918067,120.27317125473229,23.84753090554476
22.903635797882743,120.2731750159126,23.775630829095842
22.90362323072184,120.2731786967903,23.703909649014474
22.90361031683731,120.2731822903325,23.632365558266642
22.90359706822452,120.27318578982602,23.560984100580217
22.90358349459403,120.27318918734287,23.489759854853155
22.903569606227588,120.27319247533872,23.41871269845963
22.903555411693322,120.27319564678069,23.347837210297588
22.90354092441464,120.27319869457197,23.277113512992862
22.903526151817246,120.27320161001738,23.206575940191748
22.903511107610157,120.27320438633978,23.136201000452044
22.90349579921908,120.27320701663416,23.06600134301186
22.9034802392106,120.27320949271683,22.995987810075285
22.903464436438462,120.27321180729916,22.92615498054028
22.90344840375485,120.27321395270894,22.85651731067896
22.90343215058471,120.27321592095427,22.787089256763462
22.903415688352215,120.27321770519407,22.717865397691728
22.903399028195935,120.27321929782006,22.64886922490597
22.903382180112015,120.2732206909682,22.580104352474216
22.903365156381444,120.27322187709416,22.511583429634573
22.903347967285974,120.27322284903715,22.443326333761217
22.90333062396418,120.27322359886927,22.375342100024227
22.90331313784023,120.27322411987726,22.307650605797768
22.903295520909506,120.2732244038135,22.240277149558068
22.903277784596177,120.27322444441236,22.173232573509218
22.903259940038815,120.27322423380978,22.106534947991374
22.90324199980401,120.27322376471719,22.040229448854927
22.90322397531593,120.27322303010166,21.974323304235938
22.90320587771315,120.27322202376152,21.90884904074669
22.90318772127588,120.27322073840813,21.8438427990675
22.90316951685709,120.27321916720044,21.779328070640567
22.90315127759457,120.27321730374491,21.71535545241833
22.90313301719733,120.27321514171199,21.651959278047087
22.903114747089546,120.27321267483599,21.589170267105104
22.903096481265827,120.27320989742668,21.527046244680882
22.903078234863198,120.27320680347418,21.465641421794892
22.903060019877046,120.27320338805546,21.405000974297526
22.90304185173,120.27319964535243,21.345189955413343
22.903023746130298,120.27319557031419,21.28627341836691
22.903005717358155,120.27319115897676,21.22831280231476
22.90298778169302,120.27318640712043,21.171398458957675
22.902969955414335,120.27318131052546,21.11559724855423
22.90295225508715,120.27317586586723,21.061006750941278
22.902934699275747,120.27317007014078,21.00771912485361
22.902917306544406,120.27316392117233,20.95583737123013
22.90290009688543,120.27315741646838,20.905475333213808
22.90288308714947,120.27315055551746,20.856754082083704
22.90286630132729,120.27314333646545,20.809785653948786
22.902849760553607,120.27313575956809,20.7647254537344
22.902833487105564,120.27312782536883,20.721699973821643
22.902817504973914,120.27311953517834,20.680848355829717
22.902801838435032,120.27311089104256,20.642331425786022
22.902786512907692,120.27310189555084,20.606281097173692
22.9027715546675,120.27309255330654,20.57283651161194
22.902756990275652,120.27308286808181,20.542135003685953
22.902742847435768,120.27307284671775,20.514247047722343
22.902729151566632,120.27306249570375,20.48924673211575
22.90271593037186,120.27305182402274,20.46712502169609
22.902703209555842,120.27304084110514,20.44779337179661
22.902691013680545,120.27302955887487,20.431051201641562
22.902679364451902,120.27301799040669,20.416553367733957
22.902668284147044,120.27300615082126,20.403752338767053
22.90265778818861,120.27299405830816,20.39189096748829
22.902647890571206,120.27298173319876,20.379926595270636
22.902638599006153,120.2729691990852,20.36653105211258
22.902630721468043,120.27295571757973,20.51279599940777
22.902625027660495,120.27294326885162,20.57064457935095
22.902619902776735,120.27293158482055,20.589869614243508
22.902614277799827,120.27292125669537,20.586606110811235
22.902607636928384,120.2729119601967,20.618184030234815
22.902599899336387,120.27290335640403,20.660311414241793
22.902591416317136,120.27289439655618,20.803021925628187
22.902582175304044,120.27288629679671,20.84403617668152
22.902570365280173,120.27287892446004,20.81896900081635
22.90255586429248,120.27287286253937,20.7106029779315
22.902545734478775,120.27286679432108,20.652973049104215
22.902552457889865,120.27285928337288,20.639413065850736
22.902584707471867,120.27284866594088,20.621948082089425
22.90263669174056,120.27283350389853,20.63018996423483
22.90269307431565,120.27281491735866,20.609349440932277
22.90274084677757,120.27279427709209,20.71871475362778
22.90277671667982,120.27277718845819,20.57905993676186
22.90280209605012,120.27276479202908,20.322331000089648
22.90281796308323,120.27276000372967,19.555676941573623
22.902823509518953,120.27275777411722,19.30503048139811
22.902822676696783,120.27276053285745,19.389225617289544
22.90281835664597,120.27276586227246,19.988992856323723
22.90281413598546,120.27277377284767,20.229194659888748
22.902810776136345,120.27277862805526,20.203455267369748
22.902810600775297,120.27277870234796,19.966825970053673
22.90281434847507,120.27277465381087,19.811748117864134
22.90282130722411,120.27277043590941,19.687731373369697
22.902828225702944,120.27276857887938,19.83754533547163
22.902826378699864,120.27277440989806,19.88201824963093
22.90280149799469,120.2727899045953,19.931391840040686
22.90274484209628,120.27281654073748,19.882262199223042
22.90266646142033,120.27284750254391,19.961795187354088
22.902591351484958,120.27287403434383,20.026505075454715
22.90254162691757,120.27288751974933,19.986300375640393
22.902521066548815,120.27288582099091,19.84244962579012
22.902518748013016,120.27287290985143,19.676616307139398
22.9025212376258,120.27285516623331,19.697444181203846
22.902520805506473,120.27284044892424,19.661252903938294
22.90251314631286,120.27283183886593,19.58095373338461
22.902497189314392,120.2728311067119,19.32495303142071
22.902475238623847,120.2728360434369,19.192190242290497
22.902453942252784,120.27284556306942,19.164148688435557
22.902437718214284,120.2728574448521,19.135807166934015
22.902424411052614,120.2728683560344,19.160702674567702
22.9024080801981,120.27287714018829,19.19164451801777
22.902385099332808,120.27288438238483,19.22819358801842
22.902363741556815,120.27289547949071,19.19657049274445
22.902359179170745,120.27291471136058,19.26658041161299
22.902381266808554,120.27294377569797,19.58774637424946
22.902420243086098,120.27297783813813,20.154126852810386
22.902454406074185,120.27301261041892,20.699431893646718
22.902467336666568,120.27304576811197,21.056389779031278
22.90245846536826,120.27307925104343,21.13103293311596
22.90243705761151,120.273112418103,21.163024663329125
22.902413460554918,120.27314263260276,21.382008273482324
22.90239449400102,120.27316655754055,21.823488367915157
22.902382897037963,120.27318250457937,22.458581314921382
22.902378770626875,120.27319129886699,23.208923277378084
22.90238073844058,120.27319498799233,24.03053466141224
22.902387030731962,120.27319596530589,24.823858734965327
22.902395353384392,120.27319663931084,25.44174510407448
22.9024030387108,120.27319872832976,25.954594006955627
22.902408362660765,120.27320438160858,26.35505262219906
22.902410331474083,120.27321404464777,26.69883000147343
22.902409610465998,120.27322571378194,26.980973064541818
22.90240804978124,120.27323626705495,27.206425856471064
22.9024078482874,120.27324366429438,27.39659811627865
22.902409851516037,120.27325023389257,27.537125730574132
22.90241298973621,120.27325953844708,27.708607837557796
22.902416039990253,120.27327313586706,28.035912294745447
22.902418679688097,120.27328605065085,28.3841891887188
22.90242137736362,120.27328967117371,28.659803437888627
22.902445215041848,120.2732594291818,31.91204362714291
22.902500337530714,120.27323379141984,32.46111452686787
22.902547075391016,120.27320842627759,32.63966032981873
22.90257053007386,120.27318922174001,33.60994724452496
22.902583208334836,120.27318421631665,34.22121625506878
22.90260081069974,120.27318569373139,34.738447215437894
22.902612689554253,120.27320530975597,32.50994058597088
22.902610209937624,120.27320616968449,32.539471135854726
22.90262731021015,120.27320642894175,32.37076282608509
22.902669652191697,120.27320713887828,31.81868140769005
22.902726722501964,120.2731998205349,31.44907067012787
22.9027948936806,120.27318741167039,31.08923598659039
22.902871230572096,120.27317157760508,30.72191656816006
22.90295112695012,120.27315398084613,30.402371515035632
22.903029234017136,120.2731375214945,30.12722528767586
22.903101266851664,120.27312390591692,29.982660759389404
22.90316587540212,120.27311464557361,29.83013263219595
22.903223041961045,120.27310845901124,29.71517274218798
22.903272755104258,120.27310541707004,29.46320895421505
22.90331593619127,120.27310220077752,29.3429652967453
22.903356360054264,120.27309954244754,29.24055887204409
22.90339603763319,120.27309647790524,29.13075083601475
22.90343496264476,120.27309229110826,29.00768820548058
22.903472655273724,120.27308682669404,28.881004278779034
22.903508793929632,120.27308024446866,28.74900767207146
22.903543303212945,120.2730726730058,28.62237072825432
22.903575968349223,120.27306456285685,28.492575088977816
22.903606751353088,120.27305598486203,28.359821335017685
22.903635713343864,120.27304698892277,28.226323083043102
22.90366298855558,120.27303771013416,28.09185445380211
22.90368888144243,120.27302824820315,27.957042488098146
22.903713793564076,120.27301871389749,27.822637105047704
22.903738153898193,120.27300921622668,27.68921836256981
22.90376230688358,120.2729998528518,27.557342827141287
22.903786436163806,120.27299070621726,27.427068323850634
22.903810576868207,120.27298182906961,27.29847074812651
22.90383470843327,120.27297325315268,27.171362168431283
22.903858842854376,120.27296497955338,27.045954007744793
22.903882983844383,120.27295700280524,26.92213061589003
22.903907113410213,120.27294931207125,26.799866694390776
22.903931209274738,120.27294189338156,26.679136944770814
22.903955242877522,120.27293473097615,26.559916068553928
22.903979185658134,120.2729278073048,26.442180574297907
22.904003010769774,120.27292110427383,26.325888900220395
22.904026688795188,120.27291460612324,26.211024783015255
22.904050197742855,120.27290829677331,26.097539432764055
22.904073515621235,120.2729021605919,25.985427428364755
22.9040966204388,120.27289618412063,25.87464901506901
22.904119497058517,120.27289035492409,25.76519877177477
22.904142126916113,120.2728846610784,25.65703513669968
22.904164498301807,120.27287909219406,25.550141846537592
22.904186597792194,120.27287363928819,25.444513480186465
22.904208415676734,120.27286829398527,25.340113896965985
22.90422994053125,120.27286304739832,25.236946710944178
22.904251166358048,120.27285789396495,25.13496674627066
22.904272083732195,120.27285282709985,25.034166774809364
22.904292688084013,120.27284784156033,24.934550410628322
22.90431297484384,120.27284293293488,24.83607789897919
22.904332938585192,120.272838096748,24.738742011725904
22.904352575595208,120.27283332922755,24.642544555902482
22.904371882446643,120.27282862698493,24.547440355658534
22.904390856283452,120.2728239868234,24.453447481334212
22.904409496534424,120.27281940752819,24.360542441487315
22.9044277992011,120.27281488609434,24.26870535874367
22.90444576485469,120.27281042149889,24.17793442606926
22.904463390639147,120.27280601035326,24.08822241532803
22.90448067741129,120.27280165304109,23.999545835077765
22.9044976243143,120.27279734770823,23.91190649235249
22.90451422906335,120.27279309403502,23.825298966050152
22.904530493372054,120.27278889087063,23.7396943436265
22.904546418668446,120.27278473725602,23.655099853217603
22.904562003524497,120.27278063370268,23.571510073721413
22.90457724794021,120.27277657842042,23.48890151369572
22.90459215362921,120.27277257364698,23.40727778720856
22.904606720020286,120.27276861708067,23.326629859089852
22.90462094825586,120.27276470910512,23.246939658999445
22.90463484119197,120.2727608511269,23.16820537990332
22.904648396543788,120.27275704269847,23.09041617959738
22.904661618024164,120.27275328286079,23.01357205808163
22.904674505347497,120.27274957353194,22.937636874675754
22.904687059941807,120.2727459142004,22.862630506753923
22.9046992820927,120.27274230544162,22.7885131995678
22.904711173228193,120.2727387476392,22.715299409389498
22.90472273648994,120.27273524104888,22.64294576740265
22.904733971592332,120.27273178688543,22.57146311581135
22.90474488110581,120.27272838431769,22.500818928003312
22.90475546474477,120.2727250348881,22.43101320397854
22.90476572450844,120.27272173941182,22.36201703119278
22.904775662110445,120.27271849712965,22.293819567441943
22.90478527897881,120.27271531002354,22.226390093147756
22.904794576255952,120.27271217668695,22.15972138017416
22.904803556797912,120.27270909916581,22.09379174411297
22.904812220890296,120.27270607861092,22.028570465385915
22.90482056967552,120.27270311342392,21.964041280686857
22.904828605438418,120.27270020584255,21.900182505607606
22.904836330463826,120.2726973551635,21.836968841671947
22.90484374646537,120.27269456240977,21.774365955233577
22.904850853443047,120.27269182841248,21.712355775952343
22.90485765510972,120.27268915278803,21.650916619420055
22.904864151179776,120.27268653726267,21.590014151990417
22.90487034422366,120.27268398042985,21.529628496289256
22.9048762362406,120.27268148420758,21.46971989756823
22.90488182951543,120.27267904782867,21.410272092521193
22.904887124333754,120.27267667276364,21.35125074750185
22.90489212440843,120.27267435811736,21.292623335897925
22.90489682945385,120.27267210516857,21.234362752199175
22.904901243754082,120.27266991404511,21.17644911903143
22.90490536730913,120.27266778449126,21.118839067578318
22.904909202403818,120.2726657174021,21.061505492329598
22.90491275132299,120.27266371181862,21.004432129979136
22.904916016922684,120.27266176921131,20.947564769506457
22.904918999774107,120.27265988919658,20.89089979684353
22.904921701590894,120.27265807209407,20.834392036139967
22.904924125229076,120.27265631809563,20.778021610021593
22.90492627240229,120.2726546260504,20.72174695670605
22.904928147108986,120.27265299806824,20.66555723398924
22.904929747064337,120.27265143255077,20.60940545898676
22.904931079694055,120.27264993058492,20.553280789494515
22.90493214214209,120.27264849095587,20.49714347076416
22.904932941262953,120.27264711519811,20.4409591691494
22.904933474771806,120.27264580235259,20.384726077616218
22.90493374780953,120.2726445524193,20.328395406246187
22.904933762660953,120.27264336514251,20.271958119869232
22.90493351932608,120.27264224065011,20.215372656702996
22.90493302180337,120.27264117862241,20.15863359564543
22.904932272377657,120.27264017976267,20.101699374914173
22.904931272762568,120.27263924234468,20.044551924169067
22.904930025242937,120.27263836751925,19.987165944933892
22.904928533246014,120.2726375543913,19.92953059500456
22.904926796771804,120.27263680315262,19.87160250556469
22.904924820961178,120.27263611329175,19.81337986958027
22.90492260695656,120.27263548442507,19.75483738857508
22.90492015647157,120.27263491604108,19.69595699220896
22.90491747464709,120.27263440909883,19.636704346835614
22.904914559769487,120.272633961936,19.577079452455045
22.90491141640844,120.272633575128,19.517051589488986
22.9049080485624,120.2726332477158,19.456608108699324
22.90490445508896,120.27263297950762,19.395734553813938
22.90490064341382,120.27263277043949,19.33440381932259
22.904896612394573,120.27263261942453,19.272617712259294
22.904892364601654,120.27263252710209,19.210347320079805
22.904887904033522,120.27263249283283,19.147581800580028
22.90488323411743,120.27263251489047,19.084306697487833
22.90487835428217,120.2726325944898,19.020505747497083
22.90487326966862,120.2726327308636,18.95617714357376
22.904867982276006,120.27263292298889,18.891299201309682
22.90486249524598,120.27263317016241,18.82585746443272
22.90485680914975,120.27263347302348,18.75985193294287
22.90485092884259,120.27263382978192,18.693266343533995
22.904844856323724,120.27263424165253,18.626089854002
22.904838593592387,120.27263470678115,18.55831704324484
22.904832144075833,120.27263522548748,18.48992803388834
22.904825511486916,120.27263579623707,18.420930054068567
22.904818696682447,120.27263641973319,18.35130503344536
22.904811702804075,120.27263709405781,18.281054779052734
22.904804533564658,120.27263782029782,18.210168448686602
22.904797190392213,120.27263859685483,18.13863158607483
22.90478967642839,120.27263942353706,18.066447805285456
22.904781994243628,120.27264029919364,17.993618913352492
22.904774146979573,120.27264122382459,17.920128646969797
22.904766137777877,120.27264219781352,17.845977006137375
22.904757968066555,120.27264321873089,17.771156762719155
22.904749641558467,120.27264428753574,17.695676951885225
22.904741161680867,120.27264540301329,17.619517696261408
22.904732530718583,120.27264656484385,17.542695259153845
22.904723749242827,120.27264777181267,17.465195184290412
22.904714823536896,120.27264902475092,17.3870283138752
22.90470575388639,120.27265032110115,17.30817477053404
22.90469654486098,120.2726516619503,17.228650817573072
22.904687198174294,120.27265304621145,17.14846368312836
22.90467771582556,120.27265447337312,17.06760433202982
22.904668102098842,120.27265594292385,16.986065536141396
22.90465835899337,120.27265745384064,16.903859944701196
22.904648489079584,120.27265900605957,16.820994785845283
22.904638496355947,120.2726605987495,16.737464638471604
22.904628382250475,120.27266223159073,16.653271309614183
22.90461814933361,120.27266390381605,16.56842564147711
22.904607802460625,120.27266561485004,16.48293305516243
22.90459734220273,120.27266736437302,16.39678993660212
22.90458677227278,120.2726691512981,16.310010742068293
22.904576094955605,120.27267097664824,16.222586436390877
22.904565313392858,120.27267283761029,16.134545932114126
22.90455443044058,120.27267473495147,16.04587477296591
22.90454344838361,120.27267666771276,15.956594643354418
22.904532370934795,120.27267863538266,15.86670915734768
22.904521199236562,120.27268063821693,15.776221929013731
22.90450993728736,120.27268267436145,15.685136572420598
22.904498587657642,120.27268474477523,15.593471157908441
22.90448715234663,120.27268684760416,15.501243755817415
22.904475634495967,120.27268898284825,15.408447138011457
22.904464036961702,120.27269115037961,15.315092146694662
22.904452362314277,120.27269334866381,15.221198659241201
22.90444061226731,120.27269557834019,15.126769386202099
22.904428791104873,120.27269783774645,15.031827819019558
22.904416901111794,120.27270012726618,14.936370343625548
22.904404944001705,120.27270244715514,14.840416837394239
22.904392923487453,120.27270479466411,14.743979046046736
22.904380841282677,120.27270717151933,14.647066908270123
22.904368700814615,120.27270957561096,14.549697590887549
22.904356503796905,120.2727120073226,14.451890067756178
22.904344253085583,120.27271446588702,14.353647049427034
22.90433195096548,120.27271695117635,14.25499202734232
22.904319601435066,120.27271946293486,14.155928615570069
22.904307206207964,120.2727219994363,14.056476691484452
22.904294766997797,120.27272456208723,13.956659746527674
22.90428228694621,120.2727271490895,13.856483201801778
22.90426976919486,120.27272976103448,13.755968741714955
