Latitude,Longitude,Altitude (m)
22.90279571470695,120.27307886023775,3.791169290915132
22.902793271800096,120.2730794399383,3.7674789912700657
22.902790828372012,120.27308000181972,3.744039069086314
22.90278838734159,120.27308054602085,3.7208501448780305
22.902785951210745,120.27308107226399,3.6979196648150685
22.902783522116522,120.27308158101198,3.675243285298348
22.902781101153504,120.27308207254251,3.652828142240644
22.90277868962478,120.273082547087,3.630675786927343
22.90277628862492,120.27308300524714,3.608790562957526
22.902773898258182,120.27308344734692,3.5871737113595015
22.902771518733054,120.27308387408058,3.5658320577889686
22.902769149945293,120.27308428600354,3.5447745997011664
22.90276679116517,120.27308468385631,3.5239985447824007
22.902764441819336,120.27308506828687,3.503502031490207
22.902762100604708,120.27308544022091,3.483306157305837
22.902759766322458,120.27308579998238,3.463400373488665
22.902757436887658,120.27308614886724,3.443808569833637
22.90275511099723,120.27308648743087,3.4245214386284357
22.902752786305637,120.27308681673782,3.405552631184459
22.902750460675826,120.27308713771373,3.386905870586634
22.902748131501642,120.2730874512843,3.368591085061431
22.90274579617693,120.27308775879172,3.350617892578245
22.90274345141793,120.27308806088398,3.332994670078159
22.902741095087595,120.27308835908842,3.315721417561174
22.90273872358943,120.27308865456214,3.29882264533639
22.9027363336918,120.27308894846223,3.2823076611161235
22.902733922371564,120.27308924217718,3.2661789469569924
22.902731486188593,120.27308953741948,3.2504523259699347
22.902729021702765,120.27308983529994,3.2351439315229658
22.90272652531758,120.27309013748477,3.220264312356711
22.90272399416627,120.27309044573273,3.2058342556953434
22.90272142428747,120.27309076171004,3.1918646205365664
22.902718812605922,120.27309108717544,3.1783740223050123
22.90271615573362,120.27309142411917,3.165380145654083
22.90271345038681,120.27309177434624,3.1529022265225652
22.902710693542343,120.27309213989315,3.14096477521956
22.90270788222921,120.27309252298149,3.1295823738276964
22.902705013372138,120.27309292564775,3.11878666856885
22.902702084729835,120.27309335034494,3.108598756924272
22.902699093435533,120.27309379924839,3.0990341517478233
22.902696037508548,120.27309427467227,3.0901397018581633
22.902692914394848,120.2730947791159,3.0819293688237672
22.90268972253074,120.27309531507856,3.07443821169436
22.90268646076952,120.27309588487446,3.0676988074630502
22.902683127286867,120.27309649132687,3.061746835693717
22.902679721509436,120.27309713707395,3.056608978495002
22.902676242655374,120.27309782419846,3.0523364282846455
22.90267269015133,120.27309855538483,3.048947179973126
22.902669064466412,120.27309933350266,3.0464989413768055
22.902665365861235,120.27310016072725,3.0450270818024876
22.902661594596417,120.27310103955793,3.044566970556975
22.90265775192291,120.27310197240142,3.045177556484938
22.902653839612903,120.27310296147934,3.0468861422091726
22.90264985850036,120.2731040090133,3.0497569509446625
22.902645811347814,120.2731051171786,3.053838072538376
22.90264169992745,120.27310628787288,3.059168289124966
22.902637526741174,120.27310752280863,3.065798793122173
22.902633294603643,120.27310882374462,3.073789464145899
22.902629006485867,120.27311019225449,3.083193976670504
22.902624665384927,120.27311162968046,3.0940545256584886
22.902620274271847,120.27311313704075,3.1064396779239183
22.902615836195828,120.27311471539991,3.120395972028375
22.902611354258195,120.27311636545217,3.135977082446218
22.902606831794824,120.27311808803064,3.153237924680114
22.902602271437942,120.27311988327418,3.1722383783459667
22.90259767595007,120.27312175155303,3.193026223033667
22.902593047780993,120.27312369272836,3.215659787073732
22.902588389406564,120.27312570684647,3.2401936757117515
22.902583702051675,120.27312779344449,3.2666629479974514
22.90257898793156,120.27312995196704,3.295143927171827
22.902574248088676,120.27313218190498,3.325659572258592
22.902569483200633,120.27313448224011,3.3582781398147348
22.902564694101393,120.27313685190788,3.393027863234282
22.9025598804261,120.2731392895198,3.429952488765121
22.902555042565673,120.27314179391878,3.4690985549688342
22.902550179946758,120.27314436371631,3.510497397810221
22.90254529194388,120.2731469966445,3.554175699397922
22.902540377853377,120.27314969112972,3.6001713110953575
22.902535437492812,120.2731524448115,3.6485003662705426
22.902530469533055,120.27315525523683,3.699192029088736
22.902525473974098,120.27315811995268,3.752256538033486
22.902520450842005,120.27316103595062,3.8077019597887998
22.90251539953736,120.27316399999081,3.86554473797977
22.90251032110263,120.27316700855572,3.9257799084931615
22.902505216840883,120.27317005798892,3.9884105738997464
22.90250008808127,120.27317314407865,4.0534193598032005
22.90249493792511,120.27317626224283,4.120795717462898
22.902489769082806,120.27317940771425,4.190523513510824
22.902484585463597,120.2731825754943,4.262581029951573
22.902479392462226,120.27318575965872,4.336931966707111
22.90247419609891,120.27318895451461,4.413545298069716
22.902469002498123,120.27319215404513,4.492387516275048
22.902463819921376,120.27319535172433,4.573393157079816
22.902458656421693,120.27319854107249,4.656529953747988
22.902453521641856,120.27320171491569,4.741728718951345
22.902448425693752,120.27320486682052,4.828938260272146
22.90244337923656,120.27320798979817,4.918092803210021
22.902438393711304,120.27321107690612,5.009120368123055
22.90243348045477,120.27321412171099,5.101947424083948
22.902428651950444,120.27321711773307,5.196493304252625
22.902423920264834,120.27322005900179,5.292679823845625
22.90241929762081,120.2732229400557,5.390421351909638
22.902414795850326,120.27322575524823,5.489630395948888
22.90241042709807,120.2732285003213,5.5902176019251355
22.90240620305265,120.27323117115566,5.692078723460437
22.902402134555683,120.27323376414121,5.795133714228869
22.902398232018758,120.27323627636208,5.899278948366643
22.90239450589257,120.2732387058281,6.0044194872081285
22.90239096575474,120.27324105087308,6.1104461202621465
22.902387620231647,120.27324331047873,6.217263288348914
22.90238447789754,120.27324548422855,6.324779775887729
22.902381546544838,120.27324757253906,6.4328814082741745
22.902378833079847,120.27324957568797,6.541470144271852
22.90237634478678,120.27325149511007,6.650452286243439
22.902374087516453,120.27325333224016,6.759729172438384
22.902372067823354,120.27325508920725,6.869192212879659
22.902370290867673,120.2732567681404,6.978754535585643
22.90236876226567,120.2732583713075,7.088322442919017
22.902367487516344,120.27325990208723,7.197799134671689
22.902366470502862,120.2732613627475,7.3070958773195755
22.90236571694574,120.27326275675958,7.41612083476782
22.902365231027865,120.27326408731699,7.524789617091418
22.902365017362126,120.27326535742819,7.6330227984786045
22.90236508041808,120.27326657074956,7.740731645405293
22.902365424756507,120.27326773028952,7.847842316687108
22.902366054286638,120.27326883942678,7.9542815916538245
22.90236697389502,120.27326990135488,8.059982454776765
22.9023681872433,120.2732709195914,8.164868582814933
22.902369698866192,120.27327189691331,8.268876683324576
22.902371512803235,120.27327283656047,8.371943463861943
22.90237363315913,120.27327374163387,8.474011216610672
22.902376064299187,120.27327461463283,8.575030300438405
22.90237881022386,120.27327545879719,8.674933079302312
22.902381874555697,120.27327627667252,8.773680460810663
22.902385261594862,120.27327707071186,8.871226526916027
22.902388974794516,120.27327784336823,8.967524118542672
22.902393017699026,120.27327859690953,9.062532902270556
22.90239739421763,120.27327933364992,9.156215647250415
22.902402107243162,120.27328005548705,9.248532020062209
22.90240320396594,120.27327946629838,9.36635152462125
22.902398044101844,120.27327804210948,9.50017595076561
22.90237684790529,120.27327445851866,9.70951198539138
22.902288814786075,120.27325299807345,10.340834875881674
22.902175390975447,120.27323177168377,10.896496613979341
22.902055493211463,120.2732066977486,11.525102272987366
22.90193071783991,120.2731715830758,12.411169182896616
22.90183977718175,120.27313384885072,13.258326132237913
22.901791992520543,120.27308725402412,14.110815780222417
22.90178512972864,120.27302640677911,14.991319160223009
22.9018244488117,120.27295064079561,15.784150095343591
22.901912579433745,120.27286500664243,16.450123116731646
22.90205573680891,120.27279152104587,16.965241701006892
22.902242307385883,120.2727507826644,17.460382211565975
22.902429940434217,120.27274101240162,18.067242572546007
22.90258061513749,120.27275586831607,18.517817756533624
22.902653678813046,120.27276224020872,19.199742955803874
22.902700180411284,120.272761504394,19.660566551566127
22.90275310107722,120.27275587838272,19.648296504676345
22.902805514063868,120.27274341289419,19.613131967544557
22.90285626062193,120.27273350649435,19.62710098218918
22.902895435897275,120.27273457501785,19.635144086658958
22.90290899218515,120.27275389990291,19.707684673368934
22.90290394927233,120.27280072684115,19.7595832362175
22.902908251567595,120.27287295872243,19.713979168951514
22.902937745753402,120.27294937774265,19.609242584824564
22.902973550903535,120.2730134069999,19.421192047238353
22.90299480874872,120.27306064954062,19.306902027189732
22.903011648637413,120.27309857107494,19.191471502125264
22.903031711768335,120.27312412811705,19.189588862180713
22.90304563416908,120.27313665904464,19.284899836301808
22.90303698558662,120.2731386575652,19.45703418582678
22.9029988054982,120.27313113705549,19.69427784454823
22.902935431799172,120.27311343501378,19.96841106975079
22.902866576831805,120.27308397946807,20.267847621142867
22.902818280321465,120.27304552423898,20.563598318457608
22.902784435105264,120.27301489517569,20.774089129924775
22.902760564119085,120.27300370690864,20.92740328514576
22.90276650771959,120.27301101844846,20.997799374938015
22.902794142047874,120.27303326895263,20.85602181887627
22.90282529208127,120.27305775997054,20.641416998565198
22.90285335877092,120.2730775521741,20.34574324500561
22.90288045930623,120.2730888065108,20.211317540645602
22.90290922382034,120.2730985008629,20.117751452326775
22.902933302777807,120.27310853956406,20.10295094871521
22.902940585421522,120.27311654558747,20.11979666697979
22.902934159890556,120.27312100250123,20.129109343409542
22.90292360969995,120.27312247422326,20.11774648821354
22.902913354213524,120.27312351032518,20.000846585631372
22.902898034495916,120.27312260761224,19.846931772708896
22.902876770239587,120.2731199751006,19.633072810411456
22.902853950576937,120.27311562088987,19.464369904160503
22.902834418737076,120.27311402767371,19.325358600199223
22.902823641133253,120.27311737008134,19.249441175460817
22.902824884791134,120.2731251344587,19.271836772322658
22.902840459495096,120.27313885362202,19.325014835357667
22.902865776012035,120.2731570913024,19.387361615538598
22.902889460710153,120.27317829283784,19.268461175322535
22.90289432974021,120.2731930340329,19.11243785530329
22.90287876186438,120.27319992439307,18.92152054232359
22.90285161572133,120.27320002996568,18.838526774168017
22.90282181286235,120.27319938292267,18.768720172822476
22.90279097353493,120.27320240444693,18.70380446404219
22.90278108343164,120.27321804256951,18.190166426539424
22.902777513257856,120.27322476186595,17.739412534475328
22.90278115400636,120.27321703141438,17.258896301507953
22.9028016723807,120.27320396234879,16.57333488929272
22.902814895914517,120.27318593669303,15.966467082142833
22.902815958079657,120.27316910612292,15.360981780529023
22.902800543445828,120.27314827971507,14.894638090848925
22.902788715248203,120.27313104999627,14.31476885455847
22.902784920527974,120.27311743987683,13.773500562787058
22.90277199076012,120.27310310704088,13.444161434292795
22.902758868970654,120.27309446466595,13.06265443980694
22.902748051596884,120.27309113679134,12.675045309126379
22.90273179819765,120.27309067853862,12.353856013536454
22.9027125746661,120.27309519983271,12.026486396968366
22.902693115798623,120.27310525843578,11.71103561627865
22.902677923522067,120.2731214280778,11.40244275802374
22.902666361882126,120.27314024115438,11.131987940728665
22.90265834242585,120.27315855432312,10.886513782262803
22.90265316863185,120.27317468957654,10.64871786594391
22.90264844664114,120.27318863835218,10.435006586015225
22.902643795642135,120.2732019386963,10.245544378727676
22.902638226650563,120.27321571071535,10.088355112612248
22.90263306726861,120.2732316643524,9.943139287620784
22.902628896506062,120.2732495854075,9.800264662534
22.902597993171437,120.27325700978643,9.899579193979504
22.902571883627136,120.27326524769006,9.856270408570767
22.902553802608534,120.2732687732414,9.822942593336107
22.902540974168044,120.27326864938682,9.856432362765075
22.902534765208685,120.27326634752434,9.92782685983181
22.902537178613844,120.27326335900018,9.990189773380758
22.90254409686476,120.27326031729632,10.134090728878975
22.902551401295938,120.27325726420672,10.335791957348587
22.902555739921027,120.27325391874439,10.550871470987799
22.902556288464847,120.27325015913749,10.795025175333024
22.902555227290044,120.2732462272635,11.05635347044468
22.902553922178996,120.27324238638282,11.349891414284707
22.902551778797708,120.27323857554012,11.637618863582613
22.90254899127878,120.27323479436514,11.928122493207455
22.902546128989222,120.27323112838972,12.240265933454038
22.902542798738207,120.27322755576807,12.548070738732816
22.902539418396863,120.27322416406855,12.85221575152874
22.902536265468733,120.27322100147224,13.155657101273539
22.90253313516204,120.27321804381917,13.449949590325357
22.902530108945243,120.27321533359756,13.733129911899569
22.902527362838143,120.27321293129994,14.001045585274698
22.90252532849844,120.27321090764745,14.25475644862652
22.902524152522446,120.27320925268914,14.492879996418955
22.902523844943858,120.27320792065065,14.715575080275537
22.902524338393526,120.27320685011381,14.927321812391282
22.902525546373123,120.2732059878989,15.133399527192118
22.902527530778865,120.27320532461039,15.340420423507693
22.9025304742502,120.27320488885145,15.550912476003171
22.902534885795546,120.273204720611,15.770816487193109
22.902541042605712,120.27320472357314,16.018083931565286
22.902546759965773,120.27320442809943,16.25810625267029
22.902552039856403,120.27320382979292,16.489845950841907
22.902556885274684,120.27320292485835,16.712305239319804
22.90256129861828,120.27320170950053,16.924550864815714
22.902565282519408,120.27320017960017,17.125728999853138
22.902568840287888,120.27319833071408,17.315040422201157
22.902571974686243,120.2731961571494,17.491783950865273
22.90257468714786,120.27319365126937,17.655332866549493
22.902576979132192,120.27319080432636,17.805142357826234
22.902578851030157,120.2731876048884,17.940781787872318
22.902580300131355,120.27318403925557,18.061918561100963
22.902581322318056,120.27318009090466,18.16836528223753
22.90258190945905,120.27317573937837,18.260057417809964
22.902582050738797,120.27317096079445,18.33710790139437
22.902581729451825,120.27316572567028,18.39984064137936
22.90258092571316,120.2731599989693,18.448810377418997
22.90257961294001,120.27315373774046,18.48487838315964
22.902577759311203,120.27314688982223,18.50924473297596
22.90257532828842,120.27313939129716,18.523538897037508
22.902572278668337,120.2731311630668,18.529884274780752
22.902568566693578,120.2731221073804,18.53094907706976
22.90256414732976,120.27311210214219,18.530014582753182
22.902558981797277,120.27310099443154,18.530955282211306
22.902553039082864,120.27308859235715,18.538158210515977
22.90254630959587,120.27307465561522,18.556321900844576
22.902538816948066,120.27305888586243,18.590092763185503
22.902530639819318,120.27304091991233,18.643523995995523
22.902521938957364,120.27302033406285,18.719383092403415
22.902512992569406,120.2729966781146,18.818429561734202
22.90250421839627,120.27296956590135,18.93882916414738
22.902496153228007,120.27293886618634,19.07599505901337
22.902489327443526,120.2729049988301,19.223079252123835
22.902490871122144,120.27287338941333,19.274156254231933
22.902490862443642,120.27283899892653,19.36423381197453
22.90249204931337,120.27280701120019,19.45330737781525
22.902496441599222,120.27278001419809,19.53661512613297
22.90250132040237,120.27275870887195,19.610900598645213
22.902502513552935,120.2727406206467,19.68351564705372
22.902499636929516,120.2727236375494,19.730951472103598
22.902499156979736,120.27270725678528,19.76929304170609
22.902513230902418,120.27269589595029,19.775359188079836
22.902547177862967,120.27269213166876,19.759620467066767
22.902591985511606,120.27269398193178,19.717266652941706
22.902631569849273,120.27269768274708,19.68509671711922
22.902654492090242,120.27270389427328,19.689939209580423
22.902664963470674,120.27271818033977,19.72193291938305
22.902677106856867,120.27273996759261,19.7754659165144
22.902697323229795,120.27276385698316,19.829692648470406
22.90271903209642,120.2727831273405,19.900384103000167
22.902734173448682,120.27279458281363,19.980751855254177
22.90273824384814,120.27279793912945,20.095324829757217
22.90273128796433,120.2727966095324,20.219309762954715
22.90271851315854,120.27279344708651,20.35668911468983
22.902705701084713,120.2727913134182,20.431085038721562
22.90269214239917,120.27278799446474,20.493619214177134
22.902677787115838,120.27278277772669,20.517021284997465
22.902664231244945,120.27277551398613,20.551818477749826
22.902654409839943,120.27276901317086,20.56571799480915
22.902648813275235,120.27276485184652,20.565090034484864
22.902644685123345,120.27276367637346,20.53283198565245
22.902638994528512,120.27276506456538,20.463065097212795
22.902630145662933,120.27276956231275,20.364652793347837
22.9026191963134,120.27277925056698,20.267322666168216
22.902610933259673,120.27279594631332,20.167367764115337
22.902609578631647,120.27281979669847,20.067471190392972
22.90261579176086,120.27284888194166,19.985482655167583
22.902627143944002,120.27288082510857,19.9049647384882
22.9026385649818,120.27291221646074,19.830874107420446
22.902644634980895,120.27293993246509,19.738412534296515
22.902641901383348,120.27296201067902,19.65990384244919
22.9026316596053,120.27297973618644,19.594030059814454
22.90261803727742,120.27299606532135,19.54056283718348
22.90260318583401,120.273012275392,19.49888538348675
22.902586572237887,120.27302796954073,19.46737939780951
22.902566990594373,120.27304213031785,19.471932730674745
22.902548944784947,120.27305721558429,19.47582955956459
22.902540607664257,120.27307560572244,19.467458823621275
22.902549092762513,120.2730979560138,19.393199412703517
22.902572548144917,120.27311902721497,19.290067478179935
22.902602314934693,120.27313386250435,19.17056638026238
22.90262937296359,120.27314024189492,19.09409049278498
22.902651232726683,120.27314124291398,19.04408201605082
22.902670540437082,120.2731399867804,19.024179645061494
22.90268957491804,120.27313910771831,18.9528118301034
22.902707094805084,120.27313743461687,18.89522439348698
22.902722915999327,120.27313552172073,18.8350121819973
22.90273795070766,120.27313338134131,18.8466406172514
22.902753445142,120.27313257272267,18.882876161813737
22.902767033485603,120.27313251514603,18.95353534960747
22.90277569509884,120.27313235417209,19.025717279136185
22.902779122872232,120.27313212793845,19.084982586026193
22.902779832685017,120.27313256864973,19.128311848402024
22.902780610101498,120.27313326354987,19.189901601314546
22.902784143007246,120.2731331357149,19.233949419081213
22.90278990860726,120.27312988323607,19.26827005696297
22.90279780015338,120.27312345529413,19.252078360617162
22.902806708517513,120.27311436572823,19.223627786636357
22.902819307616234,120.27310509186154,19.160149188637735
22.902837447090924,120.27309711657037,19.059474490165712
22.902857356458615,120.27309106227494,18.951303980708126
