Latitude,Longitude,Altitude (m)
22.904557661234236,120.2749796608824,18.87044998955727
22.904559345273103,120.27498178628592,18.873280805766584
22.904561014507735,120.27498389580866,18.876108104705814
22.904562669165884,120.27498598960482,18.878928369104866
22.904564309475315,120.27498806705763,18.88174570244551
22.904565935208264,120.27499012909222,18.884558346092703
22.904567546364735,120.27499217493767,18.887365127623085
22.904569141578182,120.27499420382304,18.89016721946001
22.904570723126177,120.27499621744438,18.892966380238533
22.904572289186667,120.27499821472239,18.89576143753529
22.904573840670675,120.2750001953487,18.898548874080184
22.90457537712269,120.27500215994004,18.901335138201716
22.904576898998226,120.27500410818807,18.904117298841477
22.904578405158496,120.2750060397844,18.906892424941066
22.904579896742284,120.27500795534577,18.909664033770564
22.904581373749593,120.27500985333035,18.912433297753335
22.904582834586122,120.2750117358967,18.91519494098425
22.904584280618415,120.27501360104043,18.917955998003485
22.904585711163197,120.27501544922411,18.920714710175993
22.90458712644823,120.27501728121865,18.923464042961598
22.904588526929025,120.27501909625313,18.92621103090048
22.904589912150065,120.27502089432757,18.928955087780956
22.90459128097257,120.27502267513357,18.931693282544614
22.904592634535323,120.27502443882533,18.93442854624987
22.904593973521596,120.27502618617376,18.937159120261672
22.904595296337085,120.27502791579123,18.93988852185011
22.904596603665066,120.27502962860282,18.942610888898376
22.90459789550554,120.27503132383762,18.94532973867655
22.904599171858504,120.27503300226655,18.94804741603136
22.904600432723957,120.27503466281034,18.950759817481043
22.904601676963114,120.27503630639406,18.953469287872316
22.90460290594252,120.27503793209263,18.95617348235846
22.904604119662174,120.27503953990605,18.958875331997874
22.904605317211047,120.27504113106778,18.961572491943837
22.90460649858914,120.27504270403598,18.96426789325476
22.90460766356869,120.27504425911904,18.96695801866055
22.904608813744005,120.27504579693368,18.969646385431293
22.904609947065264,120.27504731686318,18.972330648720266
22.9046110644435,120.27504881937006,18.97501022231579
22.90461216610647,120.27505030306669,18.97768803727627
22.90461325159866,120.27505176934073,18.980364093601708
22.90461432069231,120.27505321742125,18.983033701598647
22.904615373842933,120.27505464746243,18.98570096474886
22.90461641036726,120.27505605869337,18.988367055475713
22.90461743049305,120.27505745219334,18.991029042720797
22.904618434903576,120.27505882780815,18.993687512695793
22.904619423143316,120.27506018522946,18.996341879189018
22.90462039384573,120.27506152384052,18.998996245682243
22.90462134860512,120.27506284410387,19.001644750058652
22.904622287421486,120.27506414648208,19.004293254435066
22.904623209383796,120.27506542927914,19.00693941396475
22.90462411403654,120.27506669388268,19.009579711377622
22.904625002974015,120.27506793998432,19.01221766394377
22.904625875057437,120.27506916712156,19.01485678893328
22.904626730286807,120.27507037637363,19.017489465594295
22.90462756843436,120.27507156573618,19.020120383620263
22.90462839086665,120.27507273675104,19.022750715434555
22.904629195533857,120.27507388833892,19.025373426496984
22.904629982891493,120.27507502142493,19.02799848240614
22.904630754306105,120.27507613492976,19.030621779680253
22.904631508638907,120.27507723039528,19.033239801049234
22.904632246117654,120.27507830643381,19.03585606378317
22.904632965603557,120.27507936304538,19.03847232651711
22.904633669374196,120.27508039976742,19.04108389955759
22.90463435515199,120.27508141783339,19.043695472598078
22.904635024075734,120.27508241678076,19.046304114580156
22.904635675462153,120.27508339553025,19.048909239292147
22.904636309994512,120.27508435516111,19.051512605369094
22.904636927217307,120.27508529551919,19.054114212810994
22.9046375262195,120.27508621645029,19.056714647829534
22.904638109734183,120.27508711810862,19.05931332421303
22.904638674800513,120.27508799879813,19.061912000596525
22.904639221874,120.27508886006066,19.064508332133297
22.904639752548945,120.27508970158786,19.067097042918206
22.904640264775537,120.27509052368809,19.069688684761527
22.90464075969256,120.27509132543625,19.072279740393164
22.90464123730001,120.27509210683233,19.074866692543033
22.90464169691462,120.27509286910981,19.077454817116262
22.90464213944742,120.27509361072686,19.080041183054448
22.904642563304105,120.27509433199184,19.08262110066414
22.90464297007898,120.27509503352147,19.08520336312056
22.904643358633255,120.27509571469903,19.08778738421202
22.904643729422446,120.2750963758329,19.09036319833994
22.904644082902067,120.27509701599797,19.09294135731459
22.904644417933334,120.27509763627351,19.095519516289237
22.90464473519951,120.27509823604281,19.098092985570432
22.904645034245096,120.27509881499749,19.10066645485163
22.904645314614562,120.27509937313755,19.103239924132826
22.90464557767446,120.27509991092555,19.105813393414024
22.904645822969275,120.27510042836147,19.108382173001768
22.904646049587978,120.27510092390351,19.110949780166152
22.904646257986077,120.27510139986438,19.113518559753896
22.904646448163582,120.2751018554732,19.116084994494916
22.904646619437212,120.27510228826301,19.11864908438921
22.904646772718003,120.27510270100913,19.12121786397696
22.904646908461466,120.27510309309483,19.12378195387125
22.90464702484554,120.27510346328661,19.12634369891882
22.904647123009017,120.27510381297216,19.128906616389752
22.904647202268624,120.27510414138054,19.131464844167233
22.904647263763145,120.27510444835757,19.134026589214805
22.904647306126037,120.27510473374907,19.136588334262374
22.904647329812818,120.27510499848016,19.13914480340481
22.904647334823483,120.27510524070061,19.141703617393972
22.90464732138579,120.27510546241481,19.144263017594817
22.90464728881647,120.27510566223512,19.14681831431389
22.90464723688776,120.2751058404699,19.149373611032964
22.904647167649486,120.27510599742752,19.151928321540357
22.90464707859631,120.27510613233707,19.154481273412706
22.904646970411502,120.27510624535272,19.1570359839201
22.904646843322823,120.27510633662867,19.15958952200413
22.90464669755803,120.27510640554817,19.162141301453115
22.904646533117123,120.27510645380724,19.16469249469042
22.904646348861316,120.27510647909314,19.167243687927726
22.90464614547388,120.27510648202261,19.16979488116503
22.90464592318257,120.27510646429164,19.17234431576729
22.90464568198739,120.27510642327914,19.174893750369552
22.904645420749553,120.27510635944765,19.177444943606854
22.904645140152326,120.27510627464737,19.179990274727345
22.90464484065123,120.27510616718227,19.182538536906243
22.90464452224626,120.2751060368982,19.185087385296825
22.90464418334312,120.27510588487442,19.18763506126404
22.904643825308348,120.27510570987747,19.19017980617285
22.904643448369704,120.27510551298661,19.19272572350502
22.904643051160647,120.27510529250587,19.19526929599047
22.904642633908928,120.27510504951451,19.19781462711096
22.904642197981094,120.27510478432089,19.200361130654812
22.90464174223836,120.2751044961541,19.2029035307169
22.90464126645297,120.27510418516832,19.205442413508894
22.90464077062492,120.2751038518261,19.207988330841065
22.90464025520972,120.27510349443145,19.210529558479788
22.904639720662896,120.27510311390944,19.213070199906827
22.904639165162383,120.2751027118019,19.21561201375723
22.90463858961921,120.27510228487101,19.21815148276091
22.90463799471665,120.27510183635458,19.22069212418795
22.904637379543676,120.2751013639399,19.223232765614988
22.904636744555802,120.27510086855204,19.22576988977194
22.904636088841993,120.27510034880339,19.22830701392889
22.904635413313283,120.2750998065441,19.23084706914425
22.9046347188807,120.27509924054074,19.23338712435961
22.90463400167237,120.27509865125585,19.235920731246473
22.90463326533241,120.27509803822687,19.2384555105567
22.904632508722038,120.27509740207054,19.24099204850197
22.904631731841246,120.27509674124505,19.243527414023877
22.904630934234522,120.2750960572922,19.246058676064017
22.904630116129624,120.27509534944109,19.248594041585925
22.904629277982067,120.27509461846262,19.25112530362606
22.904628418653065,120.27509386219825,19.253658324301245
22.90462753950916,120.2750930831149,19.25618841391802
22.904626638728296,120.27509227889982,19.25871615868807
22.90462571813253,120.2750914515574,19.26124859315157
22.90462477612756,120.27509060000834,19.263776337921623
22.904623814307687,120.27508972379012,19.266305841326716
22.90462283085085,120.275088823982,19.268833586096765
22.904621826668087,120.27508789873379,19.27135898602009
22.904620801987146,120.27508695066659,19.273884385943415
22.904619755213734,120.27508597700513,19.27640919965506
22.904618688397658,120.27508497898285,19.278931082308294
22.90461760017238,120.27508395675396,19.281454723596575
22.90461649122117,120.2750829095475,19.283977192461492
22.904615360860756,120.27508183813445,19.286495557844642
22.90461420977441,120.27508074220638,19.289016268074516
22.904613037051107,120.27507962099243,19.291534633457662
22.904611842918595,120.27507847464675,19.29404889535904
22.904610627832398,120.27507730409444,19.296569019377234
22.904609391336994,120.27507610794785,19.299083281278612
22.904608132749114,120.27507488744047,19.301595198333267
22.904606854118576,120.27507364195554,19.304110046446326
22.904605553167805,120.27507237087636,19.30661844623089
22.904604230807827,120.27507107451126,19.30912919086218
22.904602886583135,120.27506975347698,19.311640521705154
22.904601521632507,120.27506840684845,19.31414540421963
22.904600133906133,120.27506703462564,19.316649114310742
22.90459872522607,120.27506563711692,19.3191545830369
22.904597293998012,120.27506421432231,19.32165594828129
22.904595842044028,120.2750627662418,19.324154968678954
22.90459436754205,120.27506129241283,19.326656920135022
22.904592871630868,120.27505979252705,19.329156526744367
22.904591353627207,120.27505826735536,19.331649098813536
22.904589813758832,120.27505671689777,19.33414401572943
22.904588251342464,120.27505513945827,19.336635415375234
22.904586666605862,120.27505353688704,19.339124470174315
22.904585060460054,120.27505190825902,19.341614697396757
22.90458343244953,120.27505025372835,19.34410375219584
22.904581781891014,120.27504857236995,19.346586944878105
22.904580109240023,120.27504686572566,19.349068378925324
22.904578414268794,120.27504513317872,19.351552157819274
22.90457669629406,120.27504337411243,19.35403007459641
22.904574956682367,120.27504158868095,19.356505646526816
22.90457319475044,120.27503977673013,19.358980632245544
22.904571410042763,120.27503793872248,19.36145092827082
22.90456960233158,120.27503607434964,19.36392239671946
22.904567772755676,120.27503418284071,19.366392106533052
22.904565920631786,120.27503226496661,19.368855954229833
22.90456404527663,120.27503032134406,19.37131687086821
22.90456214714572,120.2750283499687,19.373779546141627
22.904560227150096,120.27502635191978,19.376236945509913
22.904558284378723,120.27502432765986,19.37869141381979
22.90455631814833,120.27502227549294,19.38114470970631
22.90455432868667,120.27502019773176,19.38359624695778
22.90455231667702,120.27501809190939,19.38604133588076
22.90455028211938,120.27501595956765,19.388485838592054
22.904548224102715,120.27501380024401,19.390931513726713
22.90454614285479,120.27501161347591,19.393369568109513
22.90454403928663,120.27500939941754,19.395803519010546
22.904541911576178,120.27500715791471,19.398239228546622
22.90453976154549,120.27500488958415,19.400669075965883
22.904537587600267,120.27500259350079,19.403098923385144
22.90453539110705,120.27500026997295,19.405525839746
22.904533170243784,120.27499791900067,19.40794630777836
22.904530926604767,120.27499554042973,19.41036325854063
22.90452865950673,120.27499313441436,19.41277845066786
22.904526368949675,120.27499070018361,19.415190125525
22.90452405447808,120.27498823866257,19.417598869323733
22.904521717458493,120.27498574908037,19.42000526827574
22.904519356068857,120.27498323128279,19.422407563745978
22.904516970992443,120.27498068573239,19.424806341946127
22.904514561773734,120.27497811273753,19.427203947722916
22.90451212932376,120.27497551137313,19.42959627759457
22.904509673187007,120.27497288163917,19.431983917772772
22.904507193591236,120.27497022430659,19.434370971739295
22.904504688714383,120.27496753767934,19.43675509464741
22.904502161517293,120.27496482345347,19.439131596803666
22.904499609266882,120.27496208070386,19.441505754113198
22.904497033101933,120.2749593095847,19.443878152787686
22.904494432339177,120.27495651025018,19.44624410313368
22.904491808345156,120.27495368208355,19.44860770863295
22.904489159981086,120.27495082600991,19.450970141708854
22.90448648747472,120.27494794033328,19.4533249540329
22.904483790142788,120.2749450262871,19.45567624908686
22.90448106889632,120.27494208310046,19.45802871656418
22.9044783232798,120.27493911139007,19.46037063223124
22.904475552837717,120.27493611131014,19.46271137547493
22.904472758253338,120.2749330816272,19.465051532506944
22.90446993884339,120.27493002249543,19.467386413633825
22.90446709483564,120.27492693499411,19.469713087797167
22.904464226457833,120.27492381804397,19.472041520595553
22.904461333709975,120.27492067210756,19.47436233264208
22.904458415908795,120.27491749687648,19.476677282571796
22.90445547328205,120.27491429219658,19.478992232501508
22.904452506057495,120.27491105729696,19.481303078949452
22.9044495133241,120.27490779402778,19.483608063280585
22.904446496448415,120.27490450115559,19.485909530341626
22.90444345474716,120.27490117898876,19.48820630770922
22.904440387081554,120.27489782583126,19.490500154018406
22.90443729459038,120.2748944446126,19.4927904830575
22.904434177045882,120.27489103240327,19.495078467249872
22.90443103444806,120.2748875910535,19.49735707205534
22.904427866796915,120.27488411963816,19.49963509064913
22.904424674547965,120.27488061831144,19.501907833337786
22.90442145587914,120.27487708691918,19.504177058756355
22.904418212156997,120.27487352546136,19.50644042205811
22.904414943381525,120.27486993409215,19.50870319914818
22.90441164795843,120.27486631204067,19.51095952790976
22.9044083286208,120.27486266038619,19.513211753189566
22.904404983091055,120.27485897804941,19.51546221983433
22.904401611141445,120.27485526549289,19.51770565193892
22.904398214594025,120.2748515222541,19.51994732540846
22.904394791854493,120.27484774848719,19.52218255054951
22.90439134315061,120.27484394419218,19.524417189478875
22.904387868710128,120.27484010952325,19.526643035233022
22.90438436876081,120.27483624432622,19.528869467198852
22.904380842847136,120.27483234844692,19.531088864624504
22.904377291424623,120.2748284211144,19.533303572356704
22.904373713354484,120.27482446387052,19.535518280088905
22.90437010977551,120.27482047517344,19.537729470551017
22.904366478865633,120.2748164556399,19.539931281626227
22.90436282244692,120.27481240480732,19.542131334066394
22.904359140063853,120.27480832329248,19.544330214083196
22.904355431033157,120.27480420986188,19.546522645771507
22.90435169603811,120.2748000659032,19.548710973978046
22.904347934623196,120.27479589049129,19.550900474607946
22.90434414587738,120.2747916836262,19.553080595850947
22.904340331622727,120.27478744561628,19.55525837224722
22.90433649117596,120.2747831767699,19.557435562431813
22.904332622942785,120.27477887523685,19.559603959441187
22.904328728745252,120.27477454240478,19.561771184027197
22.90432480744458,120.27477017827371,19.563934305131436
22.904320860635067,120.2747657829978,19.56609508138895
22.904316885355872,120.27476135472688,19.5682517541647
22.90431288434008,120.27475689484858,19.570407840728762
22.904308856221142,120.27475240397962,19.572558651387695
22.904304801226825,120.27474788073238,19.574703013718132
22.904300719357124,120.27474332479846,19.576847376048566
22.904296609701007,120.2747387372572,19.57898939353228
22.90429247316951,120.27473411795434,19.581129066169265
22.904288309762627,120.27472946673576,19.583262290477755
22.904284119024844,120.27472478267633,19.585395514786246
22.904279900956166,120.27472006623861,19.587524635612965
22.904275655101074,120.2747153174226,19.589651411592964
22.904271383053867,120.27471053684503,19.591775842726232
22.904267082764736,120.27470572311827,19.593894997954372
22.904262755827975,120.27470087762994,19.59601356697083
22.904258400193775,120.27469599883821,19.598132722198965
22.90425401745643,120.27469108782239,19.600244256675246
22.90424960716043,120.27468614365736,19.602355204939844
22.90424516953353,120.2746811674224,19.604464394569398
22.904240702981433,120.27467615742151,19.60657182556391
22.904236209326193,120.27467111519651,19.608676911711694
22.904231688112297,120.27466603966813,19.610780239224436
22.90422713888423,120.27466093191565,19.61288063567877
22.90422256164199,120.2746557905514,19.614978687286378
22.90421795547455,120.27465061588379,19.617076152682305
22.90421332243173,120.27464540837532,19.619173618078236
22.904208660691463,120.27464016833439,19.62126697999239
22.904203970937026,120.27463489344824,19.62336092811823
22.904199252940657,120.27462958649217,19.62545546245575
22.90419450693012,120.27462424577017,19.627542962253095
22.904189731766625,120.27461887112806,19.629632806897167
22.90418492881672,120.27461346333673,19.63172499638796
22.904180097397123,120.27460802270457,19.633807806491856
22.904175236369053,120.2746025472272,19.63589589250088
22.90417034778233,120.27459703798391,19.637983392298224
22.904165430725918,120.27459149559141,19.64006796103716
22.904160484744306,120.27458591974134,19.64215428841114
22.90415551006525,120.27458030981697,19.6442382709384
22.904150506460994,120.27457466628086,19.646322839677335
22.904145474387054,120.27456898836209,19.648406822204592
22.904140412932396,120.27456327713992,19.65049080473185
22.90413532278029,120.27455753045582,19.652578890740873
22.904130203247476,120.27455175077671,19.654661114633086
22.904125055017214,120.27454593625238,19.656747442007067
22.90411987717848,120.27454008811631,19.65883552801609
22.904114670414543,120.27453420590594,19.66092009675503
22.904109433814376,120.27452828823363,19.663006424129012
22.90410416897228,120.27452233772047,19.665096854984764
22.904098874293958,120.27451635205375,19.667186113417152
22.904093550234915,120.27451033200437,19.669277130484584
22.904088197250672,120.27450427710977,19.671368147552016
22.90408281329141,120.27449818752416,19.673458578407768
22.904077400862462,120.27449206401842,19.675552526533608
22.904071958369528,120.27448590535911,19.677649991929535
22.904066486723632,120.27447971185461,19.679747457325462
22.904060984558235,120.27447348412161,19.68184375029803
22.90405545323988,120.2744672207725,19.683947077810767
22.90404989140202,120.27446092319491,19.68604981911183
22.904044299500175,120.27445459061792,19.688152560412888
22.90403867821761,120.27444822288737,19.690261750042442
22.904033025960025,120.27444182000325,19.692370353460316
22.904027344777244,120.27443538289063,19.69447954308987
22.904021632619443,120.27442890954518,19.696595181047922
22.904015890853167,120.27442240135451,19.69871375006438
22.904010117884116,120.27441585847282,19.70083114665747
22.90400431530659,120.274409279975,19.702953232944015
22.90399848243732,120.27440266586107,19.705081181347374
22.90399261813752,120.27439601690193,19.70720737111569
22.903986724684756,120.27438933309759,19.709338836789136
22.90398079980146,120.2743826130604,19.711475578367715
22.903974844854176,120.2743758580238,19.713609388887885
22.903968857565328,120.27436906721691,19.715750233948235
22.90396284135128,120.27436224048554,19.717895768702036
22.90395679347894,120.27435537875478,19.720040717244153
22.90395071485934,120.27434848109952,19.72219387274981
22.90394460549248,120.27434154798233,19.72434820067883
22.903938464695088,120.27433457894065,19.726503114819533
22.903932292922676,120.27432757459123,19.728662132442
