Latitude,Longitude,Altitude (m)
22.902883712503513,120.2750623837,14.98970844066143
22.90289340099691,120.27506243666033,14.989206324696541
22.902903043441963,120.27506245108448,14.988700491189956
22.902912640228912,120.27506242697247,14.988190940141678
22.90292219096752,120.27506236367842,14.987677423715592
22.902931695657784,120.27506226206349,14.98716018974781
22.90294115312898,120.27506212126653,14.986639486074447
22.90295056357624,120.27506194128755,14.986115312695503
22.90295992641419,120.27506172255711,14.985587297856808
22.9029692412526,120.27506146421408,14.985055813312531
22.902978508481702,120.27506116668901,14.984520735144615
22.90298772673566,120.27506082955135,14.983982311189175
22.902996896209594,120.27506045280109,14.983440417528152
22.90300601670838,120.27506003622294,14.982895054161549
22.903015087061306,120.27505958003219,14.98234634500742
22.903024108048843,120.27505908358299,14.981794290065766
22.903033078500275,120.27505854709061,14.981239137172699
22.90304199783024,120.27505797055507,14.98068051457405
22.90305086681922,120.27505735354578,14.980118917942047
22.90305968468674,120.27505669627803,14.979554223358631
22.903068450652306,120.27505599832125,14.97898618298769
22.903077164715928,120.27505525924488,14.978415044665336
22.903085826877604,120.2750544792642,14.977841427981854
22.903094436356852,120.27505365924033,14.977264341592788
22.903102992763436,120.27505279745102,14.976684652924538
22.90311149590223,120.27505189432682,14.976101866304875
22.90311994557812,120.27505095008301,14.975516601324081
22.90312834120574,120.27504996428904,14.974928238391875
22.903136682980215,120.27504893629903,14.974337397098541
22.903144969730818,120.27504786697415,14.973743829607963
22.903153202238038,120.27504675545322,14.973147535920143
22.903161379331145,120.27504560195156,14.972549011707306
22.90316950081503,120.2750444058233,14.971947761297226
22.90317756668968,120.27504316771429,14.971344032526016
22.903185576369747,120.27504188697867,14.97073807322979
22.903193529660104,120.27504056340118,14.970129511654378
22.90320142597539,120.27503919676651,14.969519091308117
22.90320926492537,120.27503778707467,14.968906316518783
22.9032170470954,120.27503633454094,14.968291187286377
22.903224771509876,120.27503483808889,14.967674199283122
22.90323243777857,120.27503329879495,14.967055104672909
22.90324004551123,120.27503171601327,14.966433903455734
22.90324759490298,120.27503008845214,14.965810843467713
22.903255085173342,120.27502841740326,14.965186048626899
22.903262515932074,120.27502670243607,14.964559518933296
22.903269886788934,120.27502494311997,14.963930882632733
22.903277198329285,120.27502313880915,14.963300883233547
22.903284449382404,120.27502129014943,14.962669272899628
22.903291639753174,120.27501939692553,14.962036051630974
22.903298769246472,120.27501745892216,14.961401343345642
22.90330583766718,120.27501547527821,14.960765395879745
22.903312844625056,120.27501344642423,14.960127961397172
22.903319789144497,120.27501137214492,14.959489287734032
22.903326672396233,120.27500925244028,14.958849250972271
22.903333492429052,120.27500708687978,14.958208222866059
22.903340250218562,120.2750048750328,14.957566079497337
22.90334694439892,120.27500261711465,14.956922944784164
22.903353574775004,120.27500031291004,14.95627881872654
22.903360142322416,120.27499796263426,14.955633949160577
22.903366644894838,120.27499556521086,14.95498808825016
22.903373083272744,120.27499312128573,14.954341731667519
22.90337945687078,120.27499063042828,14.953694507658481
22.90338576549382,120.27498809199264,14.953046787977218
22.90339200855651,120.27498550662469,14.95239857262373
22.903398185668603,120.27498287346327,14.951750109434128
22.903404296830107,120.27498019250841,14.951101026654243
22.903410341650773,120.27497746397535,14.950451696038247
22.90341631935013,120.2749746867877,14.949802365422249
22.903422230513527,120.27497186202187,14.949152786970139
22.90342807338489,120.27496898817085,14.948503084599972
22.903433848939823,120.2749660663111,14.947853382229805
22.90343955659296,120.27496309515088,14.947203927695751
22.903445195563823,120.27496007533605,14.946554597079754
22.903450765071927,120.27495700622076,14.94590551429987
22.903456266288,120.2749538880203,14.945256679356097
22.903461697260838,120.2749507200888,14.944608340084553
22.903467058770918,120.27494750221098,14.94396062040329
22.90347234984264,120.27494423460212,14.943313272476196
22.903477570671132,120.27494091704695,14.942666544139385
22.903482719890544,120.27493754997602,14.94202068322897
22.90348779886672,120.27493413123649,14.94137568974495
22.903492805453343,120.27493066255063,14.940731563687324
22.903497739455286,120.27492714305731,14.940088428974152
22.903502601848153,120.27492357146483,14.939446285605431
22.903507390680744,120.274919949926,14.938805381417275
22.9035121073189,120.27491627628801,14.938165716409683
22.903516750201653,120.27491255119669,14.937527290582656
22.903521318548535,120.27490877486733,14.936890475690365
22.903525813140014,120.27490494600822,14.936254899978637
22.9035302330005,120.27490106526523,14.935621183037759
22.90353457773974,120.27489713220777,14.934989077031613
22.903538847357748,120.27489314640526,14.934358705878257
22.903543040488678,120.27488910721186,14.93373019349575
22.903547157132525,120.2748850159193,14.933103663802147
22.90355119846002,120.27488087123582,14.932478868961335
22.90355516212971,120.27487667316146,14.931856552481651
22.90355904833672,120.27487242126563,14.931236218690872
22.903562856885934,120.2748681161942,14.930618363261223
22.903566587191985,120.27486375644014,14.930003110110759
22.90357023827928,120.2748593432952,14.929390087485313
22.903573810928293,120.27485487525236,14.928779667139054
22.903577303578064,120.27485035317278,14.928171972990036
22.903580716228596,120.27484577554944,14.927567005038261
22.90358404966037,120.27484114388933,14.92696476328373
22.90358730153194,120.27483645625492,14.926365743398666
22.90359047223355,120.27483171350731,14.925769449710845
22.903593561374954,120.27482691543125,14.925176625728607
22.903596568175683,120.27482206116557,14.924587023615837
22.903599492830846,120.274817150495,14.924000643372535
22.90360233416973,120.27481218428066,14.923417856752872
22.903605092387448,120.27480716166144,14.922838539838791
22.903607766703526,120.27480208220675,14.922262816548347
22.903610356727718,120.27479694591658,14.921691058635712
22.90361286128931,120.27479175236039,14.92112301826477
22.90361528116878,120.27478650175343,14.92055881935358
22.903617614805164,120.27478119344985,14.919998585820197
22.903619862978942,120.2747758270191,14.919442565500736
22.90362202334868,120.27477040289173,14.918891006231307
22.903624097085093,120.27476492085248,14.9183436601758
22.903626083797942,120.27475938025546,14.91780065125227
22.903627980755545,120.27475378110069,14.91726222729683
22.903629790689582,120.27474812338816,14.916728636145592
22.903631510087894,120.27474240582616,14.916199506044387
22.9036331401212,120.27473662927584,14.915675580501556
22.903634680009024,120.27473079330662,14.915156487762928
22.903636128970877,120.27472489748793,14.914642599582672
22.903637486616528,120.27471894225033,14.914133544206619
22.90363875216549,120.27471292587155,14.913630189061164
22.903639926008005,120.27470684921273,14.913132038474084
22.903641006583115,120.27470071184331,14.912639340281487
22.903641993110334,120.27469451419383,14.912152218401431
22.90364288558967,120.2746882549726,14.911671044588088
22.90364368363087,120.27468193417961,14.911195447087287
22.90364438684371,120.27467555203015,14.910725921571254
22.903644993276977,120.27466910766307,14.910262344121932
22.903645504101398,120.27466260172423,14.909804962575436
22.903645918146246,120.2746560331372,14.909353776931763
22.903646233850566,120.27464940104086,14.908909158945084
22.903646451214357,120.27464270737275,14.908470984697342
22.90364657023762,120.27463595019532,14.908039378106594
22.903646589359386,120.27462912929326,14.90761433917284
22.903646508969906,120.27462224509716,14.907196363568305
22.903646327117976,120.27461529696116,14.906785327374935
22.90364604458407,120.27460828466998,14.90638110667467
22.903645659416995,120.2746012082236,14.90598419713974
22.90364517239723,120.27459406697618,14.90559435093403
22.903644580793088,120.27458686049714,14.90521218764782
22.903643885385055,120.27457958943234,14.904837335526944
22.90364308578289,120.27457225292063,14.904470042407512
22.90364218003539,120.27456485031618,14.904110680043697
22.903641168532797,120.27455738204954,14.903759000599385
22.90364005088487,120.27454984769012,14.903415375828743
22.903638823969686,120.27454224637681,14.903079805731773
22.90363748934821,120.2745345794013,14.902752290308475
22.903636046239956,120.27452684439547,14.902433449149132
22.90363449230349,120.27451904243573,14.90212266266346
22.903632827929044,120.27451117266094,14.901820302605628
22.903631053116623,120.27450323528639,14.901527112483977
22.903629164744306,120.27449522988151,14.901242100954056
22.90362716437305,120.27448715601572,14.90096638327837
22.903625049271177,120.27447901347374,14.900699587702752
22.903622820219166,120.274470801825,14.900441714227199
22.903620475656055,120.27446252042364,14.900193010687827
22.903618014020886,120.27445417034609,14.89995409667492
22.903615435703898,120.27444575008535,14.899724104762077
22.903612739534367,120.27443725964142,14.899504026293755
22.90360992395134,120.27442869901428,14.899293613433837
22.90360698895481,120.27442006723518,14.899092618346215
22.90360393298382,120.27441136451938,14.89890190845728
22.903600755257887,120.27440259086688,14.898720988094807
22.903597454411173,120.27439374509363,14.898550352931023
22.903594030833915,120.27438482773783,14.898390002965927
22.903590482379794,120.27437583783069,14.898239690363408
22.90358680826833,120.2743667755875,14.898100034713744
22.90358300693856,120.2743576403624,14.897971159934997
22.903579078780727,120.2743484319401,14.897852570354939
22.903575021843626,120.27433914967474,14.897745133399964
22.903570835541903,120.27432979335107,14.897648353397846
22.90356651792435,120.27432036339962,14.897562726020812
22.903562068600735,120.27431085874397,14.897488127350806
22.903557486400327,120.27430127895356,14.897424805223942
22.903552769567053,120.27429162445895,14.897372883558273
22.903547918100912,120.27428189375316,14.897332238435745
22.903542930440942,120.274272087482,14.897303241610526
22.90353780463594,120.27426220510732,14.897285769164561
22.903532539905427,120.27425224576793,14.897279697179794
22.903527135468924,120.27424220967913,14.897286140918732
22.90352158976547,120.27423209576448,14.897303985118866
22.903515901624345,120.27422190456221,14.897334097206592
22.903510069094345,120.27421163521117,14.897376105427742
22.90350409159011,120.27420128706551,14.897430381536484
22.903497966965322,120.27419086012523,14.897497049450875
22.9034916944395,120.27418035374446,14.897576109170913
22.90348527342728,120.2741697679232,14.897667312860488
22.903478700611625,120.27415910201559,14.897771280109882
22.903471975212053,120.27414835548343,14.897887887001037
22.90346509703344,120.27413752811144,14.898017257452011
22.90345806295387,120.27412661903846,14.89815877187252
22.90345087199774,120.27411562837213,14.898313917279243
22.903443522213852,120.27410455546661,14.898481454491614
22.90343601204124,120.27409339978367,14.898662127017975
22.90342834011407,120.27408216078508,14.898855687022209
22.90342050467625,120.27407083868617,14.899062506258488
22.903412503971712,120.27405943176463,14.899282460808754
22.903404335463886,120.27404794034338,14.89951542675495
22.903395998372293,120.27403636388422,14.899761528015137
22.903387489770136,120.27402470141836,14.900021012425423
22.90337880868181,120.27401295326871,14.900293756067752
22.903369952960997,120.27400111814357,14.900579882860184
22.903360919680892,120.27398919604296,14.900879392802715
22.903351707280535,120.27397718545984,14.901192285895348
22.90334231380873,120.27396508693246,14.901518686056137
22.903332736533788,120.27395289906144,14.901858221530913
22.903322973504515,120.27394062152385,14.902211387991905
22.903313022379464,120.27392825356621,14.90257781368494
22.903302880036716,120.2739157949732,14.902957746446132
22.903292545500673,120.27390324423787,14.903351310193539
22.903282015064047,120.27389060114488,14.903758133172989
22.903271285409804,120.27387786547898,14.90417833930254
22.903260354976975,120.27386503551787,14.904611928582192
22.903249220058285,120.27385211126155,14.905058901011943
22.90323787870253,120.27383909120302,14.905519008755684
22.903226327007307,120.27382597534228,14.905992623567581
22.903214562240937,120.27381276217233,14.90647924977541
22.903202580501016,120.27379945104731,14.906979259133339
22.903190378860742,120.27378604089078,14.9074922798872
22.903177954003077,120.27377253105692,14.908018188118934
22.90316530124514,120.27375892025397,14.908557355582714
22.90315241824548,120.27374520740553,14.909109410524367
22.90313929954074,120.27373139186572,14.90967422902584
22.903125942399242,120.27371747234285,14.910251935005189
22.90311234135762,120.27370344711461,14.910842032790184
22.903098492318353,120.27368931553517,14.911444770216942
22.903084390793676,120.27367507631278,14.912060395121575
22.903070030734867,120.27366072750989,14.912688163995742
22.903055408434646,120.27364626848065,14.91332832467556
22.90304051803941,120.27363169761038,14.913980629324913
22.903025353695554,120.27361701296155,14.914644954025745
22.90300990954948,120.27360221302713,14.915321670532226
22.902994178967095,120.27358729651542,14.916010035336017
22.902978155704563,120.27357226095062,14.916710544109344
22.902961832737557,120.27355710493339,14.917422701179982
22.902945203431997,120.27354182674142,14.91814675438404
22.90292825881236,120.27352642325307,14.918882579803467
22.90291099204944,120.27351089339193,14.919629805684089
22.902893393192105,120.27349523382105,14.920388679862022
22.90287545463068,120.27347944303345,14.921159574091435
22.90285716563356,120.27346351758453,14.921942116618157
22.902838515859376,120.27344745489087,14.922736183524131
22.902819494966764,120.27343125193848,14.923542270481587
22.902800091248515,120.27341490592862,14.924360253572464
22.902780292412068,120.2733984128785,14.92519025671482
22.90276008499413,120.27338176945123,14.926032899498939
22.902739455531425,120.27336497187927,14.926887934088708
22.90271393148103,120.27333481937163,14.927643338561058
22.902690527410513,120.27330626213224,14.929734827518462
22.902668697568956,120.27328057696774,14.935226999700069
22.902654724628423,120.27327289863591,14.94689772617817
22.902641129050163,120.27326516702082,14.964403382182121
22.902626466945442,120.27325390127298,14.985249745070934
22.90260883121041,120.27323980699181,15.007148915767669
22.90258664137227,120.27322256571568,15.028476328551768
22.90255938777732,120.27320238820947,15.048205074489116
22.902528676263973,120.2731831547856,15.06604307872057
22.90249572125973,120.27316401727157,15.081154761791229
22.902464206046695,120.2731470318627,15.092340472996234
22.902434921641756,120.27312728605847,15.097973044335841
22.902413793842314,120.27311442994012,15.098310597121715
22.902403434916256,120.27311275027981,15.094763071000576
22.902408687939563,120.27313086744647,15.088860730051994
22.902426792938428,120.27316229772956,15.080850790798664
22.902454406529962,120.27320241490492,15.070049473404884
22.90248245777588,120.27323668572352,15.056153798222542
22.902512467051988,120.27327297194074,15.040556728124619
22.902543810169096,120.27331295601563,15.025880617022514
22.902577593458158,120.27335915873036,15.01418746137619
22.90261106982331,120.2734063335684,15.006335269808769
22.902642021529495,120.2734513480128,15.002109044492245
22.902667951624817,120.27349172256243,15.001041242599488
22.90268592882002,120.27352450634774,15.00274499195814
22.9026930668986,120.27354679198696,15.006985591769219
22.902687624218558,120.27355773141525,15.013749287128448
22.90266914088182,120.27355710816266,15.022812901616096
22.90263893355881,120.27354906325283,15.033369356930256
22.902606199040278,120.27354210273789,15.0455184071064
22.902569746898497,120.27352846631594,15.057827435493468
22.90253280617599,120.27350629720019,15.06814708340168
22.902490335554756,120.27346985226346,15.074324894189834
22.902447813421816,120.27343134268146,15.0764805727005
22.902405150021927,120.27339294101151,15.07653881418705
22.902363040177754,120.27335618595549,15.076423818230628
22.902322606415236,120.27331986679953,15.077085044980048
22.902287032899263,120.27328430975552,15.07867392230034
22.9022605908088,120.2732556576289,15.081097759485244
22.902241831377122,120.27322956977218,15.083458894133567
22.902228475406343,120.27320517357799,15.08421182024479
22.90221622498605,120.27317231401206,15.0824415268898
22.902205956205478,120.2731370825341,15.078717293620109
22.902197257946582,120.27310042742455,15.074972613871097
22.90219015986762,120.27306763214835,15.072771209597587
22.902182817693415,120.27303590595486,15.072724120736122
22.902173563342238,120.27300521743922,15.074226503252984
22.90216464342691,120.27297499065794,15.076876366972924
22.902156221262956,120.27294471436092,15.080051147580146
22.90215069038863,120.27291619856406,15.082751445949077
22.902152650760264,120.27289778486802,15.083953575015068
22.90216241593586,120.27288743752969,15.082551937878131
22.90217853597796,120.27288244518503,15.077329411387444
22.90218684692346,120.27285919183585,15.069028760373593
22.90218990094325,120.27282958591209,15.058867355823518
22.90218935187529,120.2727993086732,15.05029941356182
