Latitude,Longitude,Altitude (m)
22.903807345594913,120.2731065095989,10.204916374593973
22.903814864626252,120.27310659006082,10.12901943591237
22.903822427302238,120.27310667968968,10.052575004547833
22.903830030884382,120.27310677857682,9.975583080500364
22.90383767058033,120.27310688632635,9.898046113401652
22.9038453436516,120.27310700272507,9.81997635141015
22.90385304462121,120.27310712774255,9.741367670446634
22.903860770921835,120.2731072609524,9.662235993117093
22.903868518103426,120.27310740205007,9.582584381461142
22.90387628137363,120.2731075508833,9.50242324641347
22.90388405662472,120.27310770733025,9.421762998908758
22.903891840091273,120.2731078705382,9.340606700986623
22.903899626980934,120.27310804062897,9.258973949700593
22.903907413699443,120.27310821714572,9.176875768393277
22.903915194769816,120.27310839941846,9.09431521910429
22.903922966255486,120.27310858769081,9.01131251129508
22.903930724219872,120.27310878098822,8.92787928071618
22.903938464212935,120.27310897918889,8.844025938302279
22.903946181100004,120.27310918159233,8.7597720811069
22.903953872313753,120.27310938828992,8.675131182104348
22.903961532377206,120.27310959852028,8.590119163900614
22.90396915752494,120.27310981170476,8.50474827465415
22.903976743820383,120.27311002775201,8.419043010681866
22.90398428664233,120.27311024602247,8.333009496062994
22.90399178222537,120.27311046608976,8.246675901561975
22.90399922680407,120.27311068767982,8.160045901626347
22.90400661712649,120.27311090975714,8.073147054612637
22.90401394840027,120.27311113238265,7.985998345166444
22.90402121737345,120.27311135488634,7.898611409038304
22.90402841993831,120.27311157672003,7.811008292913437
22.904035553698662,120.27311179751824,7.723210431069135
22.90404261437563,120.27311201679372,7.635231908887624
22.90404959837494,120.27311223393734,7.547089261382817
22.904056503129265,120.2731124482182,7.458805147647857
22.904063324359715,120.27311265957539,7.370398552328347
22.904070060354737,120.27311286721708,7.2818841732144355
22.904076706664288,120.2731130707169,7.193285281807184
22.904083260892193,120.27311326970938,7.104615963488817
22.904089720471116,120.27311346303726,7.015900714576244
22.90409608197795,120.27311365088325,6.927152395635843
22.904102342845366,120.27311383239461,6.8383912161290645
22.904108500677182,120.27311400690134,6.749633711069822
22.904114552563755,120.27311417403797,6.660897027879953
22.904120495595443,120.27311433319542,6.572208112508058
22.904126328060695,120.27311448394731,6.483569414585828
22.90413204704986,120.27311462531907,6.3950127793252465
22.904137650337926,120.27311475731072,6.306543105989694
22.90414313587102,120.27311487900862,6.2181799916327
22.904148501081814,120.27311498974272,6.1299454829394815
22.904153743574128,120.27311508908669,6.041856727331877
22.904158862149874,120.27311517643142,5.953922910928726
22.904163853043638,120.27311525135055,5.866159343928098
22.90416871659772,120.27311531317405,5.778586235791445
22.90417344904671,120.27311536086646,5.691219509124755
22.904178048336735,120.27311539442779,5.6040720244944096
22.904182513440865,120.27311541288347,5.5171541928350925
22.904186842647544,120.27311541598988,5.430488673239946
22.904191033560597,120.27311540289426,5.3440822021961205
22.90419508446847,120.27311537280478,5.2579513147175305
22.90419899348845,120.27311532523419,5.172108258962631
22.904202759422446,120.2731152597561,5.086570182353258
22.90420637987429,120.27311517570051,5.00134565860033
22.904209853474732,120.27311507209285,4.916446323454379
22.90421317885453,120.27311494862857,4.831889936745166
22.90421635447328,120.27311480433313,4.747685684591532
22.904219378277126,120.27311463890197,4.663840915888548
22.904222248554504,120.27311445172599,4.580375840097665
22.904224964449643,120.27311424152609,4.4972947440743445
22.904227523052892,120.27311400842409,4.414611100792884
22.904229924535414,120.27311375114087,4.332335321187973
22.904232165645254,120.2731134694328,4.250479041010141
22.904234246211256,120.27311316238622,4.169053896009922
22.904236164008395,120.27311282908751,4.08806111100316
22.904237918352052,120.27311246947573,4.00752150785923
22.90423950718836,120.27311208208907,3.9274369238018987
22.904240928292303,120.2731116668057,3.8478202193975446
22.90424218063694,120.27311122265105,3.7686811931729314
22.904243263537655,120.2731107488333,3.690027194023132
22.904244174427113,120.27311024468246,3.611868632882833
22.904244912107224,120.27310970955894,3.5342116338312626
22.90424547520875,120.27310914254912,3.4570653829872606
22.904245862362444,120.27310854304389,3.3804360044300554
22.904246072370217,120.27310791028188,3.3043388083577154
22.90424610215127,120.27310724344082,3.2287737947702406
22.90424595187676,120.27310654151567,3.153752599418163
22.90424561949282,120.27310580417145,3.079278284341097
22.904245102260962,120.27310503028131,3.0053661597371097
22.9042444005235,120.27310421896206,2.93201561319828
22.90424351205541,120.27310336969599,2.8592358308434482
22.904242433604736,120.27310248132578,2.7870378360152244
22.904241166369573,120.27310155342508,2.715422853529453
22.904239707269117,120.27310058471478,2.644400069504976
22.904238054762967,120.2730995746467,2.5739762204289436
22.904236206283798,120.27309852212443,2.5041569710746407
22.90423416234507,120.27309742666073,2.4349466082975266
22.904231919352522,120.27309628697647,2.3663544713184237
22.90422947645037,120.27309510215801,2.2983872966244814
22.90422683226938,120.27309387159626,2.2310509020909666
22.90422398441337,120.273092594408,2.1643419194743037
22.904220930999628,120.27309126940551,2.0982784148082136
22.90421767151469,120.27308989558378,2.032859163276851
22.904214203220068,120.27308847236417,1.9680921261832116
22.904210523719588,120.27308699852846,1.9039788345471023
22.904206632499776,120.27308547331528,1.8405284744873642
22.90420252767793,120.27308389556735,1.7777471700832246
22.90419820668671,120.27308226461469,1.7156336965188383
22.904193667301104,120.2730805789345,1.6541999957486986
22.90418890934995,120.2730788381309,1.5934469863846896
22.90418392941014,120.27307704080296,1.5333798738941549
22.90417872645474,120.27307518606749,1.4740023327246308
22.904173298087578,120.27307327301082,1.4153189559355377
22.904167642425936,120.27307130078024,1.3573352551981805
22.904161757415956,120.27306926788344,1.3000555173680186
22.904155641859543,120.27306717377225,1.243480967260897
22.904149293702837,120.27306501701527,1.1876165041401983
22.90414271003619,120.27306279682068,1.1324682520851492
22.904135889148048,120.27306051212254,1.0780377421155571
22.90412883018264,120.27305816203769,1.0243265052512287
22.904121530230313,120.27305574513473,0.9713382159397005
22.9041139868949,120.27305326068274,0.9190808354839682
22.9041061989783,120.27305070785944,0.8675494646206497
22.90409816459782,120.27304808505072,0.8167493088170885
22.90408988135727,120.27304539189112,0.7666874107643962
22.904081347545095,120.27304262685789,0.7173551967516542
22.904072560080504,120.27303978931148,0.6687633839175104
22.90406351981927,120.2730368778205,0.6209110536500811
22.90405422179789,120.27303389171497,0.5737960625216364
22.904044666016354,120.27303082998985,0.5274199415519834
22.90403484939387,120.27302769170105,0.4817848341688513
22.904024771930434,120.27302447578262,0.4368876783326268
22.904014430887564,120.27302118110777,0.39272755543142557
22.90400382369792,120.27301780712828,0.34930844611674544
22.90399294950573,120.27301435299144,0.3066202456578612
22.903981806257132,120.27301081747902,0.2646623416468501
22.90397039343865,120.27300719986013,0.22343289685994386
22.903958708311805,120.27300349909929,0.18293221750110386
22.90394675019197,120.27299971480058,0.1431483616158366
22.903934517367592,120.2729958458981,0.10407887957245111
22.903922008811737,120.2729918917218,0.06571489145606756
22.90390922332632,120.27298785160171,0.028051498003304004
22.903896159713245,120.27298372483736,-0.00891956829279661
22.90388281711674,120.272979510576,-0.045209024570882314
22.9038691951945,120.27297520848263,-0.08082973139733075
22.903855292234958,120.27297081803952,-0.11579148729890584
22.903841108066967,120.2729663384853,-0.1501083776578307
22.903826641834748,120.2729617694545,-0.18379356924444437
22.90381189456523,120.27295711067303,-0.21686329086869954
22.903796864546862,120.27295236156226,-0.24933713958412407
22.903781551608486,120.27294752215262,-0.2812322628125548
22.903765956092418,120.27294259186549,-0.3125704010352492
22.903750078512118,120.27293757088358,-0.34337406024336814
22.903733919381057,120.27293245862826,-0.3736654402241111
22.903717477158832,120.27292725546499,-0.4034710276201367
22.903700753214693,120.27292196130239,-0.43281822768598793
22.903683749602497,120.27291657635367,-0.46173368016630406
22.903666464268387,120.27291110058835,-0.49024754615128036
22.90364889943738,120.27290553446325,-0.5183933549746871
22.903631055280627,120.27289987816113,-0.5461992774009704
22.903612932653914,120.27289413223015,-0.5736980772539972
22.903594532413013,120.27288829721851,-0.6009209873378276
22.903575854900236,120.27288237346123,-0.6279013838842511
22.903556900457897,120.27287636187192,-0.6546680500656366
22.903537670968703,120.27287026296835,-0.6812491566464305
22.903518166603806,120.27286407766415,-0.7076691999435424
22.903498388390148,120.27285780665979,-0.7339454804807901
22.903478336670034,120.27285145117347,-0.760089940212667
22.903458013668484,120.27284501192086,-0.7861059473827481
22.903437419214345,120.27283848981563,-0.8119809476286173
22.90341655587495,120.2728318861521,-0.8376876887977123
22.90339542655994,120.27282520161552,-0.863177943766117
22.90337403298087,120.27281843718045,-0.8883736305236816
22.903352379587787,120.27281159374527,-0.9131642094403505
22.903330471001883,120.27280467185822,-0.9373944351077079
22.90330831441169,120.27279767194565,-0.9608498116508125
22.903285919059606,120.27279059382484,-0.9832443445697426
22.903263295899574,120.27278343681053,-1.0042052305415272
22.903240460506755,120.27277619957793,-1.0232400935962795
22.90321743222171,120.27276887929477,-1.0397104984745382
22.903194234920626,120.27276147180392,-1.0527869386449455
22.903170899411496,120.27275397055757,-1.0614019870981573
22.903147462749477,120.27274636648016,-1.0641734391525388
22.90312397183117,120.2727386467045,-1.0593158195093273
22.903100482110954,120.27273079329261,-1.044507489733398
22.90307706196544,120.27272278312923,-1.0167265229299665
22.90305378884248,120.27271458588122,-0.9720117115527391
22.903030755166036,120.2727061629089,-0.905124671332538
22.90300806345824,120.27269746697671,-0.8090860953778028
22.90298582753748,120.2726884426871,-0.6744949096664786
22.902964168068376,120.27267902570406,-0.48853081364184614
22.90294320836845,120.2726691473365,-0.2335025672316551
22.90292306473784,120.27265873801394,0.11528586800768971
22.902903840297732,120.27264773394475,0.5925904023647308
22.902885610356535,120.2726360871662,1.247310583654791
22.90286841179825,120.27262377622662,2.1468919681236147
22.90285223221411,120.2726108176259,3.3786006178855894
22.902837001088052,120.27259727897972,5.036805914551019
22.90282258645921,120.2725832871033,7.173380187094211
22.90280879517862,120.27256903439473,9.694822218686342
22.9027953818949,120.27255477838274,12.279832192659377
22.9027820642871,120.27254083701582,14.505731672406196
22.90276854069368,120.27252757780882,16.14412251073122
22.902754517326258,120.2725154027515,17.245812518537043
22.90273973719489,120.27250472987582,17.97341559636593
22.90270913023082,120.2724620181358,19.424397362172602
22.90267726013932,120.27244337736055,19.952122742176055
22.902651604275363,120.27246557897148,19.365391858816146
22.902618933860843,120.27250455615331,19.20851254606247
22.902571904443008,120.27257838357748,19.94430351781845
22.90250350296891,120.27269396970046,19.728527710318563
22.902396632247086,120.27286106631148,19.280062613308427
22.902220447150633,120.27307874566975,19.6762721670866
22.902146801215927,120.27327951024004,20.562228011131285
22.90232391615731,120.27337804678915,20.23326819616556
22.902497294945746,120.27340232186283,20.69375118625164
22.90265408312016,120.2733874306829,21.17049605631828
22.90279900628332,120.2733674105279,20.616920937895774
22.90291699179914,120.27333543516968,20.44930611425638
22.902984500654632,120.27329138686953,20.206608854472634
22.902992739223603,120.27323368635676,20.024876803398133
22.90295970142385,120.27316885122929,19.86892712587118
22.902914564728874,120.27310656274275,19.727959395766256
22.902883592176703,120.2730547697548,19.387651661992074
22.902879926967707,120.27301057785967,19.11377181559801
22.90288632262006,120.27296882287638,18.84615322780609
22.902856502029838,120.27292735587488,18.418045794963835
22.90278166113037,120.27288107985777,18.06332442831993
22.902700218764085,120.27282442924813,17.678298668026923
22.902624421019915,120.27274433704001,17.763146560907362
22.90256985793695,120.27267833992765,17.779708520770072
22.902565952511235,120.2726735489718,17.967412773907185
22.90261763436287,120.27274147222121,18.08887408685684
22.902689879432767,120.27282892686213,18.341086940944194
22.90274489162771,120.27289528293909,18.606811963438986
22.9027845665802,120.27295411430418,18.615187254190445
22.90281234939329,120.2729992935785,18.570422684669495
22.902819114655898,120.27301807147705,18.506876788973806
22.902801827866966,120.2730021509206,18.68261704093218
22.90277403538359,120.27296603366194,18.723507517933843
22.90276064486355,120.27292413407866,18.805895980596542
22.90277913188028,120.27288977224197,18.670079825937748
22.902828004214733,120.27286585248591,18.715562137544154
22.90289117830099,120.27285959777493,18.74806997489929
22.90294917938406,120.2728776142394,18.68653277719021
22.90299758634676,120.27291463119751,18.770449810028076
22.90303674090102,120.27296793809985,18.814567676782605
22.90306546669522,120.2730272124014,19.274669749140738
22.90308973423151,120.27309137426182,19.474429864645003
22.903110012561477,120.27315039737114,19.583771624803543
22.903116017037984,120.2732013447476,19.455312938928603
22.90311200224392,120.27324525265055,19.240475340366363
22.90310884579458,120.27328601864056,18.92920064139366
22.903107878423814,120.27332116642755,18.41522871851921
22.903105264879652,120.27334349317778,17.999357195973396
22.903093057043975,120.27335305693833,17.6119381455183
22.90306154826169,120.27335508584552,16.775189278066158
22.903007962647663,120.27334495635426,16.177580805182455
22.902965125084236,120.27334132235062,15.640089968442917
22.902956906198146,120.27334713668336,15.828429901003837
22.902958817234644,120.27336048775766,15.927233345627783
22.90296536838175,120.27337175096402,16.178124623417855
22.90297217489283,120.27337755549027,16.52263347554207
22.902974862033847,120.27337799617305,16.952051461338996
22.902971967623547,120.27337430838601,17.415972509503362
22.902963888913792,120.27336791078052,17.87154153841734
22.902952988534814,120.27336087727616,18.2663560269475
22.90294127191536,120.27335449751726,18.569653500318527
22.902931140024485,120.27335007923834,18.734010313808916
22.902923228619212,120.27334777861229,18.762301110208032
22.902917555670868,120.2733473867183,18.670558728933333
22.902913328301697,120.27334821356955,18.51934541428089
22.90290991280854,120.27334974350323,18.357924484372138
22.902907242783073,120.27335183843672,18.21894218075275
22.902904543575595,120.27335399732554,18.133954658865928
22.902902298957066,120.27335624672641,18.09885878562927
22.902901867217373,120.27335873282297,18.112146812736988
22.902907724243434,120.27336222843942,18.135969480931756
22.90293807627142,120.27337617813576,18.167225556492806
22.902939952049888,120.27339428907143,18.204052094519138
22.902913104344755,120.27339107144755,18.246990463614463
22.902894126625267,120.27338502693647,18.29012357842922
22.9028863770475,120.27338148716036,18.32260079538822
22.9028852844765,120.27337956575906,18.34476996219158
22.902887161709792,120.27337794622697,18.35547240304947
22.9028901944993,120.27337620591067,18.345877195715904
22.902892406255972,120.27337383310643,18.332570796370504
22.9028934591189,120.27337080089212,18.318681384682655
22.90289351671272,120.27336707272185,18.319764121890067
22.90289368855282,120.27336310395765,18.320921572864055
22.90289388204409,120.27335891305523,18.32212801647186
22.90289402649931,120.27335453138313,18.323382227897643
22.902894075535357,120.27334999713186,18.324665834903715
22.902894002965436,120.27334535117193,18.325972713410852
22.902893800745236,120.27334063199834,18.3272906152606
22.902893472469028,120.2733358729897,18.3286072922945
22.90289302909076,120.27333110161638,18.329912945985793
22.902892484816338,120.27332633621222,18.33120880115032
22.902891853252623,120.27332158798464,18.332470361471174
22.90289114886225,120.27331686083186,18.333695177316663
22.902890381657816,120.27331215274387,18.334877124607562
22.902889559769207,120.27330745744695,18.336000280737874
22.902888689957063,120.27330276458642,18.337051172733307
22.902887774874294,120.27329806198031,18.338026126146314
22.902886817259393,120.27329333616755,18.33891534245014
22.902885817711397,120.27328857295615,18.339691875696182
22.902884776487042,120.27328375791045,18.340355725884436
22.902883691789192,120.27327887671666,18.340883621513843
22.902882562334188,120.27327391512186,18.341269438505172
22.902881386068163,120.2732688591168,18.34149480462074
22.902880160167044,120.27326369530128,18.341543797254563
22.902878881293308,120.27325840960515,18.341404168248175
22.902877546537304,120.27325298826278,18.341057545363903
22.902876150935533,120.2732474165949,18.34049045562744
22.902874690636988,120.27324168028768,18.339686976432798
22.902873161448362,120.2732357630782,18.33862996035814
22.902871557293636,120.27322964815534,18.337303484797477
22.90286987226795,120.27322331657612,18.33569162714481
22.902868100979898,120.27321674720484,18.333782139241695
22.902866235556335,120.27320991701758,18.331557873666284
22.902864269750086,120.27320279860488,18.32900903189182
22.902862196543772,120.27319536193822,18.326122140944
22.90286000695173,120.2731875713853,18.322880053400993
22.902857695240257,120.27317938674564,18.319281544446945
22.902855253279462,120.2731707602659,18.315300892949104
22.902852675506796,120.27316163694448,18.310950347065923
22.902849956017395,120.2731519530697,18.306212759375573
22.90284709241508,120.2731416342097,18.301084455430505
22.902844084871006,120.27313059417703,18.295566660046575
22.902840937150597,120.2731187339932,18.289655698776244
22.9028376594376,120.27310594067042,18.283360145330427
22.902834269189878,120.27309208699847,18.276678774893284
22.902830794049038,120.27307703489471,18.269627510070798
22.902827273295262,120.27306064122098,18.262210025310516
22.902823760500215,120.27304276838193,18.254452041745186
22.90282032558091,120.27302330698346,18.246363357901572
22.902817053430468,120.2730022084195,18.23797336935997
22.902814038612288,120.27297953600586,18.229309022068975
22.902811383220612,120.27295552628594,18.22040461087227
22.9028091812198,120.27293065654936,18.211296880245207
22.902807508089417,120.27290568189555,18.20202869874239
22.902806400799047,120.2728816159863,18.192642934918403
22.90280583735521,120.27285961333739,18.183203279197215
22.902805706250113,120.27284076723502,18.173758724212647
22.9028057831845,120.27282588114107,18.16437541002035
22.90280573851292,120.27281530495216,18.155125600755213
22.902804429002355,120.27278910262982,19.34158143877983
22.902795049339808,120.27276037895933,20.242258344471452
22.902783920468266,120.27273070672449,21.190580586552617
22.90277885289685,120.27271968281771,21.048999223709107
22.902785638013494,120.27271638748046,21.082911924839017
22.902794500187454,120.27271760087325,20.963105338096618
22.902799471141602,120.27272104023946,20.651605273008347
22.902796995548755,120.27272147465615,20.384526829004287
22.902786484548493,120.27271897717706,20.118526222944258
22.90277150656139,120.27271558643214,19.892126362800596
22.902756368287182,120.27271448268469,19.689269912838935
