Latitude,Longitude,Altitude (m)
22.902891377895497,120.27306061635282,7.111832766547799
22.902890917369046,120.27306096718833,7.109582270398736
22.902890445932144,120.27306131450132,7.107288697972894
22.902889963804768,120.27306165861198,7.10495267148316
22.90288947041499,120.27306199892564,7.102573185816407
22.902888966158763,120.27306233539652,7.1001489008218055
22.90288845046416,120.27306266843635,7.097679098561406
22.90288792319921,120.27306299790791,7.095163348272443
22.902887384363904,120.2730633236282,7.092600692704321
22.90288683391425,120.27306364545997,7.089990174606442
22.902886271454303,120.27306396367771,7.0873319375663995
22.902885696940075,120.27306427773244,7.08462435425818
22.902885110151594,120.27306458817316,7.08186613239348
22.902884511000874,120.27306489463386,7.079056793347001
22.902883899355928,120.27306519743478,7.076196863606572
22.902883274996796,120.2730654961642,7.073284285083413
22.90288263757152,120.27306579086786,7.070318244114518
22.902881986816144,120.27306608163725,7.067299458637834
22.902881323126607,120.2730663682894,7.064225439801812
22.90288064540307,120.2730666510073,7.06109704913199
22.90287995404147,120.2730669293792,7.057912707164884
22.902879248601877,120.27306720377109,7.054671743825078
22.902878528600358,120.27306747386274,7.0513746377378705
22.90287779430087,120.27306773988289,7.048019953027368
22.902877045043514,120.27306800151129,7.044607593968511
22.902876280608318,120.27306825861073,7.041137225523592
22.902875500599336,120.27306851173016,7.037608512654901
22.902874704796606,120.27306876000038,7.034021168187261
22.902873892980153,120.27306900392462,7.030374713495374
22.902873064490073,120.27306924331988,7.026670201554895
22.902872219062402,120.27306947804892,7.02290634007752
22.9028713563012,120.27306970774578,7.019083894863725
22.90287047589851,120.27306993273065,7.015203200951219
22.902869577326406,120.2730701525461,7.0112643062025315
22.90286865992498,120.27307036742084,7.007267928555608
22.902867723430273,120.27307057730914,7.0032153602987535
22.902866767358354,120.27307078157052,6.9991069364696745
22.90286579100532,120.2730709801135,6.994944475844503
22.90286479366727,120.27307117321257,6.990729414299131
22.902863775036256,120.27307136036448,6.986462469771505
22.90286273440837,120.2730715412033,6.982146226838231
22.90286167103572,120.27307171568323,6.977783317938448
22.902860584258402,120.27307188339257,6.97337613619864
22.90285947328453,120.27307204437709,6.9689287499338395
22.902858337234225,120.27307219795054,6.964442654848099
22.902857175579566,120.27307234406719,6.9599241927266124
22.902855987176714,120.27307248226958,6.955376869499684
22.902854771541737,120.27307261155126,6.950806907296181
22.90285352731083,120.27307273246119,6.946219666719437
22.90285225395607,120.27307284408442,6.941621561348438
22.90285095037761,120.27307294568902,6.937021732926369
22.90284961538762,120.2730730370005,6.932428318083287
22.902848248062234,120.27307311783586,6.927850937187672
22.902846847521573,120.27307318677694,6.923299832820892
22.902845412753788,120.27307324354925,6.918790081679822
22.90284394243906,120.27307328783257,6.9143334579467775
22.902842435653522,120.2730733187577,6.909946187019348
22.90284089116535,120.27307333508945,6.905646265208722
22.902839308270647,120.27307333682785,6.901453124701977
22.90283768569359,120.27307332296644,6.8973887344002724
22.902836022554308,120.27307329249878,6.893478365719319
22.90283431788494,120.27307324519614,6.8897496353387835
22.9028325708056,120.2730731800521,6.886232648789883
22.902830780436428,120.27307309610592,6.88296382945776
22.902828946161502,120.2730729932204,6.879980366528034
22.90282706732092,120.27307287043483,6.87732629352808
22.902825143342763,120.27307272733749,6.875050765275955
22.902823173963068,120.2730725629677,6.873208297193051
22.90282115887388,120.27307237792014,6.871859818279743
22.902819098119192,120.2730721712799,6.871076595842839
22.902816991742995,120.27307194277249,6.870937411606312
22.902814839921266,120.27307169280961,6.871535214602948
22.902812642961962,120.2730714212998,6.872976116061211
22.902810402096907,120.27307112851751,6.875388866186142
22.90280811763406,120.27307081524049,6.878926816523076
22.90280579089323,120.27307048169742,6.8837797420024875
22.902803422886272,120.27307012935225,6.890188726186753
22.902801015108974,120.27306975847945,6.898465258419514
22.902798568793163,120.27306937104615,6.909019616305828
22.902796085698583,120.27306896819603,6.922403654813767
22.902793567365023,120.27306855125578,6.939367619097233
22.90279101568421,120.27306812251273,6.96093892621994
22.902788432151926,120.27306768324782,6.988528695181013
22.90278581821997,120.27306723597714,7.02407078756392
22.902783175912052,120.27306678248483,7.070207011595369
22.902780506064058,120.27306632560725,7.1305154503434895
22.902777810215763,120.27306586671676,7.209800353094936
22.902775089203047,120.27306540887848,7.314395847037435
22.902772343553842,120.2730649544255,7.452369412839413
22.902769573796064,120.27306450550792,7.633226979672909
22.902766779973714,120.27306406519081,7.866356746852398
22.90276396142688,120.27306363525834,8.157211165904998
22.90276111718771,120.27306321937026,8.50088633775711
22.902758246156345,120.27306281908199,8.873519105911255
22.902755346441065,120.27306243768733,9.22429190802574
22.90275241557822,120.27306207761087,9.488879227161407
22.902749450576234,120.27306174159746,9.638251673221589
22.902746448135577,120.27306143312389,9.70111431980133
22.90274340394486,120.273061154386,9.723165544509888
22.902740313054792,120.27306090954683,9.72740578174591
22.902737170274108,120.27306070121394,9.718104752063752
22.902733968651802,120.27306053373333,9.7006912150383
22.902730701302847,120.27306041071901,9.684691728591918
22.902727359890434,120.27306033637977,9.675902253627777
22.902723935285866,120.27306031565627,9.67334601163864
22.902720416468703,120.27306035371797,9.672955836296081
22.90271679151665,120.27306045564279,9.671578544139862
22.902713046351703,120.27306062875032,9.66791763496399
22.902709165532066,120.27306087981113,9.661692442893981
22.90270513091032,120.27306121660224,9.652789629459381
22.902700921413466,120.27306164781564,9.64092967748642
22.90269651328488,120.27306218397318,9.625628983974456
22.902691878940495,120.27306283573398,9.606202923297882
22.902686986088902,120.27306361641048,9.581813135385513
22.90268179722544,120.27306453990983,9.551474609375001
22.902676269258244,120.27306562215207,9.514079040527344
22.902670351660507,120.27306688148184,9.468430631399155
22.902709445618203,120.2731697757419,9.868321684598923
22.902723583841887,120.27329368545641,9.791629064321517
22.90267489773146,120.27340535989102,9.869507909536361
22.902530903751344,120.27336681734573,9.830321133375168
22.90238051479263,120.27323180967325,10.17719715976715
22.902297333928203,120.27302131559294,10.328490807771683
22.90230364920734,120.27287746930384,10.277287856340408
22.902332672877353,120.27291039280823,10.297735686302184
22.902325623694676,120.27300478277243,10.260780261278153
22.902309203669763,120.27305809787626,10.291489243268966
22.902298655417614,120.27308451228166,10.283925240516663
22.902290939757293,120.2731022316481,10.25304414486885
22.90228621210219,120.27311135963883,10.205880982398988
22.902286340156962,120.27310807105339,10.168680884122848
22.902293315254187,120.27309427986442,10.141092730522155
22.902310959536848,120.27307378547094,10.142564216136932
22.90233437653487,120.27304932094978,10.107444606304169
22.902357773954304,120.27301877287036,10.098136301517487
22.90237536355275,120.27298230933087,10.086436018943786
22.90238696681324,120.27294064394238,10.080073174238205
22.902393295950404,120.27289502398024,10.049967834472657
22.90239442348792,120.27285081284984,9.981470810890197
22.902397199822758,120.2728088844834,9.949265454769135
22.90240587296967,120.27277355031723,9.88658660030365
22.902428036036167,120.272746542799,9.840250119447708
22.902461863591437,120.27273167188388,9.762041980028153
22.902506500215736,120.27272477946883,9.752229587078094
22.90255768013322,120.27271817557012,9.790685406684876
22.90261165783249,120.27271230817897,9.876301708459854
22.902658137986897,120.27270576765162,9.978427902698517
22.90268793213025,120.27269554217337,10.052640861034394
22.902717065949588,120.27270361945314,10.092217429637909
22.902747597427997,120.27273546599909,10.098344599246978
22.902770058783034,120.27276873506663,10.109806143522263
22.902782513806294,120.2728020951826,10.114434450149536
22.902786592069827,120.2728351435083,10.120427221775055
22.902777115070702,120.27285579243593,10.047336735486985
22.90276659480407,120.27288141683239,10.011178891658783
22.902764747946936,120.27291533806101,9.91293875193596
22.902776417374007,120.27296945408449,9.878512382984162
22.902790096435044,120.27302226242338,9.814686359405517
22.902802838473452,120.27306554543397,9.796383345127106
22.902812300162754,120.27309264010067,9.777949953317643
22.90281848013915,120.27310889674516,9.77360805606842
22.902821031204052,120.27312058525416,9.765025730133056
22.90281928628041,120.27313026344683,9.741427971363068
22.902817181707956,120.27314106679266,9.717875586271287
22.902817842405916,120.27315327023248,9.68617967891693
22.902823777513166,120.27316930980636,9.664893488883973
22.902831244438385,120.27318615151218,9.634110990047455
22.90283648435658,120.2732009778695,9.603175331115724
22.902837296656966,120.273210646501,9.58432036614418
22.902835027943873,120.27321469105944,9.580328439712524
22.90283259865364,120.27321654560643,9.588554476976395
22.902831094155776,120.27321737976143,9.570781013727188
22.902832575776895,120.27322103496519,9.572891751289367
22.902835947984922,120.27322597328727,9.571328369617463
22.902839364406656,120.27322644022927,9.541950157403946
22.90284504408626,120.2732292728063,9.514548284769058
22.90285168920845,120.27323585446041,9.44515393447876
22.90285781441264,120.27324534829175,9.324094280719757
22.902863825409085,120.27325727825463,9.18086795783043
22.90286948432364,120.27326742142218,9.052049022197723
22.902862479684625,120.2732287442428,8.692029275059701
22.902854060338964,120.27316650353397,8.483861731648446
22.902843563169043,120.27308281935963,8.209694057106972
22.902852376170674,120.27306389368445,8.316483306169511
22.902856983018975,120.27306200235668,8.242234450936317
22.902852478192152,120.27306372913165,8.171197554349899
22.902847926512,120.27305756441781,8.152449897170067
22.90284725380375,120.27304722270729,8.144809984445573
22.902848785709708,120.2730407735829,8.142640280246734
22.902850205607614,120.2730407935287,8.149808459877969
22.902850491962855,120.273046108259,8.166017488479614
22.902849796333864,120.27305451362646,8.186413818359375
22.902848816945262,120.27306401459438,8.20727537202835
22.902848475113917,120.27307327140932,8.227177760601045
22.90284952995178,120.27308145773904,8.246328037381172
22.902852543434864,120.27308816355114,8.264742379903794
22.902857544599044,120.27309323934365,8.283235312700272
22.902864101161835,120.27309677052666,8.30244618344307
22.902871466505516,120.27309905340498,8.322020043611527
22.902878807696634,120.27310046525602,8.340506275653839
22.90288541524817,120.27310125558517,8.356338817596436
22.902890728063987,120.2731016123221,8.368099119782448
22.902894587986598,120.27310186612772,8.370964075088501
22.90289704794047,120.27310258152292,8.361657110452652
22.90289832490272,120.27310425161708,8.347897207498551
22.90289873694807,120.27310686973111,8.337867710113526
22.90289852217064,120.27311011554289,8.335626977920532
22.902897786331373,120.27311361150053,8.341696521043778
22.902896553714815,120.2731171961163,8.352747691988945
22.902894905357428,120.27312103193012,8.364544178247453
22.902893684971126,120.27312468219317,8.378268471479416
22.90289319210928,120.2731281180847,8.392922829389573
22.902893465178412,120.27313091685454,8.407078651189805
22.902893505784633,120.27313362920786,8.419586661815643
22.902893304249314,120.27313623410093,8.430596575260163
22.9028928504979,120.27313871163372,8.440262317419052
22.902892134675785,120.27314104478825,8.448727954506873
22.90289114679639,120.27314321755297,8.456126065731048
22.902889876477197,120.27314521675271,8.462582050919533
22.902888313071717,120.27314703131663,8.468219299674034
22.902886445141583,120.27314865136331,8.47317307150364
22.902884260808484,120.27315006943599,8.47759700512886
22.902881747138256,120.27315127972471,8.481680157542229
22.902878890140897,120.27315227728884,8.485660596966744
22.90287567362671,120.27315305910902,8.489846749544144
22.902872080086183,120.27315362234893,8.494643819451332
22.90286808915022,120.27315396440096,8.500587101221084
22.902863677590126,120.27315408320652,8.508385821819306
22.902858817645846,120.27315397542606,8.51898105430603
22.90285347742193,120.27315363680505,8.53362296795845
22.902847618247876,120.27315306226558,8.553980242013932
22.90284119371029,120.27315224398485,8.582291119813918
22.902834147805144,120.27315117253896,8.621594106197357
22.90282641040642,120.27314983557613,8.676079469919205
22.902817894758467,120.27314821763382,8.751641002893448
22.902808490129043,120.27314629995564,8.856696383953095
22.90279805437438,120.27314406058295,9.003023241519928
22.90278640228084,120.27314147289083,9.204524683237075
22.902773288495347,120.2731385061829,9.46555428481102
22.902758386892312,120.27313512381563,9.74911545944214
22.902741261427806,120.27313128022479,9.974269414663315
22.902721338819426,120.27312691049504,10.09744306063652
22.902697897151914,120.2731219027744,10.136928307533264
22.902670136003202,120.27311602599363,10.136019685268403
22.902637455386685,120.27310876595382,10.13001006603241
22.90260014491314,120.27309906077028,10.131376636981964
22.90256039591068,120.27308520709059,10.138202599525451
22.902522552815945,120.27306563262819,10.145617845535279
22.902491201591214,120.27304040463149,10.150505375623704
22.9024684477878,120.27301135559732,10.151653310537338
22.90245348918538,120.272980535299,10.148823486328125
22.902444289940725,120.27294922527656,10.142150300979614
22.902439052381695,120.27291793581752,10.13190810251236
22.90246241250131,120.27290255864067,10.375890794038773
22.902483936784225,120.27287457780436,10.233120313882829
22.902509411809326,120.27283536565686,10.157301663398743
22.902525747696213,120.27279776356029,9.981018031358719
22.90254988240808,120.272794080039,10.1284476416111
22.902566938703433,120.2728135830671,10.166500650167466
22.902576532549926,120.27283675854568,10.147823925256729
22.902585192827296,120.27285191894927,10.151946995019912
22.902590986186716,120.27285139162093,10.147006241798401
22.902590603507186,120.27284117004265,10.119461738824844
22.90258837355258,120.27283228949868,10.117338748455047
22.902587407318105,120.27283061277117,10.086519682645799
22.902588809970464,120.27283751666879,10.023389771699906
22.902594623962948,120.2728489649362,10.004667481660842
22.90260477938951,120.27286132654707,9.982442611694337
22.902621328756013,120.27286641288433,9.996304557561874
22.90263574820967,120.27286296747738,9.92808571100235
22.902644776296686,120.27285327498869,9.916068004131317
22.90264507853367,120.2728384185297,9.91744663643837
22.90263930497143,120.27281752528899,9.950268461942672
22.90263042696905,120.27279098010371,9.97912363243103
22.902622719046132,120.27276317419336,10.00427022266388
22.902621354932286,120.27274120545812,10.027254192352295
22.90262922813968,120.2727314374522,10.028588982582093
22.902645698383445,120.27273805814013,9.998422570228577
22.902669870237027,120.27276109145917,9.987840356349945
22.902698193009805,120.27279844224333,9.960244544744493
22.90272787492513,120.27284388937242,9.933742104768752
22.902753707674314,120.27288104838419,9.898221024036408
22.90277364845211,120.27289504818053,9.891002588748933
22.902784751987728,120.27289451170276,9.878152456760407
22.902786454501406,120.27288521735221,9.849483950138092
22.90278069083776,120.27286697756527,9.821516150951386
22.90277200299831,120.27284081589046,9.795117859840394
22.90276668978655,120.27281541940671,9.77816112279892
22.902768212321845,120.27279967627489,9.760579875469208
22.90277628275317,120.27280138294395,9.758245332717896
22.90278410202424,120.27281784931662,9.766956887483596
22.902789527420033,120.27285241006867,9.812587491750717
22.902792453179607,120.27289822171169,9.823731803178788
22.902801455970224,120.27295960308165,9.809484276771546
22.902812045614983,120.27301803597396,9.73747758960724
22.90282140457891,120.2730722215561,9.67154752922058
22.90282468607185,120.27311417341376,9.589605346679688
22.902821985736193,120.27313745248694,9.491200176954269
22.902818342658716,120.27314287815427,9.37231463074684
22.902817841350068,120.27314279571776,9.221262975692749
22.90282032814012,120.27314812934166,9.044508184909821
22.902820368350397,120.27315185796972,8.84753319835663
22.902816520306093,120.27314704046607,8.700905285477639
22.902813436872965,120.27313979556861,8.638565393447877
22.902812013015623,120.27313455572653,8.608613118052483
22.902813445187782,120.27313767248536,8.58467486524582
22.902815806551683,120.27314420518994,8.546901182413102
22.902820607588346,120.27315316789593,8.499757356405258
22.902826150623397,120.27315991062605,8.427488956928253
22.902831960260503,120.27316679242774,8.352773442029953
22.90283491268028,120.27317138265914,8.282780044317246
22.902834589326304,120.27316958049272,8.236818997144699
22.902834324835947,120.27316572285748,8.2312008934021
22.902834903133638,120.27316183608124,8.258692651867866
22.902838266102982,120.27316402151796,8.335929469108581
22.902841974467165,120.27316751953423,8.431812857866287
22.902846824952785,120.27317451295916,8.560317432403565
22.90285387486136,120.27319151011407,8.71737449479103
22.902861336815292,120.2732149029606,8.868572226285934
22.90286936153712,120.27324427350631,9.017411100864411
22.90287017814889,120.27325318570736,9.041541856765747
22.902871318466588,120.27326031550479,9.0717871465683
22.902871143679466,120.27326089722658,9.022551919460296
22.902875959893965,120.27327689297461,9.167149216651916
22.902878693312914,120.2732904243193,9.240058974027633
22.902879978677966,120.27330054598563,9.235265254497529
22.90288126853038,120.27330680118752,9.216973727226257
22.90288229296857,120.27330934592298,9.205891062736512
22.90288250739405,120.27330957584856,9.199308433294297
22.902881777933874,120.27330819226931,9.18875053358078
22.902880177925606,120.2733057034827,9.174745000123977
22.90287782769212,120.27330250177125,9.160281135082245
22.90287485327547,120.27329853237552,9.144747638225555
22.90287136958731,120.27329382745582,9.128766530990601
22.902867516879674,120.27328834474169,9.113605213165282
22.90286349101268,120.27328253859463,9.099346391201019
22.902859476144123,120.27327651286086,9.085483679533004
22.902855639802155,120.27327045629347,9.071396013975143
22.902852082556464,120.27326414024778,9.05735372209549
22.90284895376579,120.27325764752628,9.042987305164337
22.902846351492176,120.27325097396599,9.02770116186142
22.90284426090973,120.27324379796384,9.013182924985886
22.902842668336405,120.2732360461413,9.004453756809236
22.902841513676748,120.27322774649569,9.006562771320343
22.902840828958205,120.27321931637897,9.013544191360474
22.902840455935298,120.27321084339708,9.014102268457412
22.902840213837756,120.27320240696724,9.00315361905098
22.902840000380138,120.27319426684221,8.983444020748138
22.90283961992229,120.27318662897603,8.958411151885986
22.902838909863355,120.27317991067494,8.930643609523774
22.902837517549525,120.27317366924298,8.909847531795501
22.902835525689028,120.27316748362264,8.898788607120514
22.902832954606975,120.2731607703995,8.897066704750062
22.90282993844027,120.27315382436869,8.898875908374787
22.902826495886256,120.2731466593459,8.90426905822754
22.90282264489437,120.2731392886893,8.913307035446167
22.902818401126396,120.27313172246328,8.926070440530777
22.902813776856572,120.27312397000028,8.942654424190522
22.90280877960784,120.27311603784216,8.963159689188004
