Latitude,Longitude,Altitude (m)
-19.586002,-32.74503,12195.442
-19.589148,-32.755726,12195.558
-19.592491,-32.7665,12194.964
-19.595419,-32.77732,12194.961
-19.598343,-32.787876,12195.558
-19.601606,-32.79842,12195.719
-19.604963,-32.809204,12195.18
-19.607948,-32.82004,12195.081
-19.610857,-32.83061,12195.626
-19.614048,-32.84112,12195.91
-19.617355,-32.851833,12195.594
-19.620659,-32.86274,12194.653
-19.623741,-32.87368,12193.725
-19.626696,-32.884464,12193.175
-19.629847,-32.895157,12192.382
-19.633,-32.905926,12191.384
-19.636063,-32.91667,12190.472
-19.63905,-32.927315,12189.861
-19.64202,-32.937843,12189.616
-19.645058,-32.94831,12189.564
-19.648153,-32.95879,12189.564
-19.651268,-32.969303,12189.562
-19.654385,-32.979855,12189.537
-19.6575,-32.990417,12189.493
-19.660608,-33.000996,12189.4375
-19.663713,-33.011585,12189.365
-19.666824,-33.02218,12189.279
-19.669931,-33.032772,12189.184
-19.673038,-33.04338,12189.08
-19.67615,-33.054012,12188.972
-19.679266,-33.06469,12188.88
-19.682392,-33.075512,12188.865
-19.685482,-33.085907,12188.604
-19.68859,-33.096436,12188.354
-19.69172,-33.107265,12188.25
-19.694853,-33.118088,12188.137
-19.697954,-33.1286,12187.821
-19.701069,-33.139214,12187.49
-19.704214,-33.150166,12187.315
-19.707369,-33.16126,12187.239
-19.71053,-33.172417,12187.24
-19.713667,-33.183426,12187.196
-19.7168,-33.19441,12187.169
-19.719946,-33.205574,12187.286
-19.723074,-33.21664,12187.419
-19.726189,-33.227585,12187.528
-19.72929,-33.238407,12187.596
-19.732382,-33.249153,12187.628
-19.735474,-33.259903,12187.663
-19.738567,-33.27065,12187.692
-19.74166,-33.2814,12187.722
-19.744751,-33.292145,12187.757
-19.747845,-33.3029,12187.785
-19.750935,-33.313644,12187.818
-19.754026,-33.324387,12187.851
-19.757122,-33.33514,12187.885
-19.76021,-33.345882,12187.917
-19.763302,-33.356632,12187.946
-19.766394,-33.36738,12187.978
-19.769485,-33.378128,12188.01
-19.77258,-33.388878,12188.043
-19.775671,-33.399624,12188.072
-19.778763,-33.41037,12188.104
-19.781853,-33.421116,12188.135
-19.784945,-33.431866,12188.167
-19.788036,-33.442616,12188.197
-19.791128,-33.45336,12188.225
-19.79422,-33.464108,12188.259
-19.79731,-33.47485,12188.293
-19.800402,-33.4856,12188.322
-19.803493,-33.496346,12188.354
-19.806583,-33.507095,12188.387
-19.809675,-33.51784,12188.414
-19.812767,-33.528587,12188.446
-19.815855,-33.539333,12188.477
-19.818947,-33.550083,12188.508
-19.82204,-33.560825,12188.539
-19.825129,-33.571575,12188.568
-19.82822,-33.58232,12188.6045
-19.831308,-33.59307,12188.634
-19.8344,-33.603813,12188.662
-19.83749,-33.61456,12188.696
-19.840578,-33.62531,12188.726
-19.84367,-33.63605,12188.757
-19.846762,-33.6468,12188.786
-19.84985,-33.657547,12188.819
-19.852942,-33.668293,12188.851
-19.856033,-33.67904,12188.879
-19.859037,-33.689754,12189.17
-19.862144,-33.700443,12189.375
-19.86533,-33.711224,12189.259
-19.8684,-33.722065,12189.173
-19.871527,-33.732895,12188.872
-19.8747,-33.743805,12188.236
-19.877491,-33.75461,12188.524
-19.880375,-33.7651,12189.455
-19.883463,-33.775566,12190.417
-19.886772,-33.786217,12190.772
-19.890064,-33.797127,12190.523
-19.893131,-33.80811,12190.319
-19.896254,-33.81903,12189.901
-19.89943,-33.83001,12189.084
-19.902634,-33.841072,12187.747
-19.905481,-33.852074,12187.018
-19.90834,-33.86279,12186.831
-19.911314,-33.873398,12186.886
-19.914368,-33.884014,12186.996
-19.917448,-33.894672,12187.109
-19.920527,-33.905376,12187.199
-19.9236,-33.9161,12187.282
-19.92666,-33.926846,12187.363
-19.929724,-33.937588,12187.438
-19.932783,-33.94834,12187.51
-19.93584,-33.959087,12187.581
-19.938902,-33.96984,12187.6455
-19.94196,-33.98058,12187.701
-19.945015,-33.991306,12187.74
-19.948069,-34.002,12187.733
-19.951134,-34.01282,12187.797
-19.954206,-34.023697,12187.899
-19.957268,-34.034496,12187.973
-19.96034,-34.045372,12188.1
-19.963398,-34.05614,12188.175
-19.966421,-34.066505,12187.985
-19.969463,-34.077034,12187.785
-19.972528,-34.087772,12187.641
-19.975616,-34.09877,12187.613
-19.978708,-34.10983,12187.626
-19.98179,-34.12083,12187.622
-19.984888,-34.13203,12187.758
-19.987982,-34.1433,12187.999
-19.99107,-34.154514,12188.283
-19.994112,-34.16534,12188.399
-19.99716,-34.17617,12188.512
-20.000204,-34.187,12188.629
-20.00325,-34.197826,12188.746
-20.006296,-34.208656,12188.857
-20.00934,-34.219482,12188.976
-20.012386,-34.230312,12189.089
-20.01543,-34.24114,12189.208
-20.018475,-34.25197,12189.319
-20.021519,-34.262794,12189.434
-20.024563,-34.27362,12189.551
-20.027609,-34.28445,12189.665
-20.030653,-34.29528,12189.782
-20.033699,-34.306107,12189.896
-20.036743,-34.316933,12190.013
-20.03979,-34.327763,12190.124
-20.042831,-34.338593,12190.24
-20.045876,-34.349415,12190.355
-20.048922,-34.360245,12190.472
-20.051964,-34.371075,12190.587
-20.05501,-34.381905,12190.698
-20.058054,-34.39273,12190.8125
-20.061098,-34.403557,12190.93
-20.06414,-34.414383,12191.045
-20.067184,-34.42521,12191.159
-20.07023,-34.436035,12191.272
-20.073275,-34.44686,12191.391
-20.076317,-34.457687,12191.505
-20.079357,-34.468517,12191.617
-20.082403,-34.479343,12191.73
-20.085445,-34.490173,12191.845
-20.088493,-34.500996,12191.964
-20.091532,-34.51182,12192.077
-20.094576,-34.522648,12192.186
-20.09762,-34.533478,12192.302
-20.100662,-34.5443,12192.418
-20.103704,-34.555126,12192.53
-20.106749,-34.565952,12192.646
-20.109804,-34.57678,12192.688
-20.1129,-34.587643,12192.511
-20.11612,-34.598625,12191.678
-20.11928,-34.609764,12190.334
-20.12214,-34.620842,12189.364
-20.125057,-34.631718,12188.528
-20.127811,-34.642452,12188.44
-20.130833,-34.65304,12188.292
-20.133732,-34.663677,12188.561
-20.136635,-34.67419,12189.259
-20.139643,-34.68468,12190.062
-20.142601,-34.69519,12191.154
-20.145618,-34.705696,12192.33
-20.148779,-34.71631,12193.091
-20.151913,-34.727097,12193.545
-20.155005,-34.737953,12193.7705
-20.158045,-34.748817,12193.866
-20.161053,-34.759666,12193.925
-20.164043,-34.77048,12193.972
-20.167032,-34.781273,12194.011
-20.170029,-34.792046,12194.049
-20.173025,-34.802822,12194.081
-20.176023,-34.81359,12194.1045
-20.179024,-34.824375,12194.107
-20.182026,-34.83517,12194.106
-20.185028,-34.84598,12194.1
-20.188028,-34.856827,12194.083
-20.191034,-34.867714,12194.068
-20.194042,-34.878666,12194.082
-20.197054,-34.889736,12194.168
-20.200077,-34.90096,12194.374
-20.203112,-34.91235,12194.757
-20.206123,-34.923656,12195.205
-20.209106,-34.93466,12195.585
-20.21208,-34.94564,12196.001
-20.215025,-34.95631,12196.309
-20.217981,-34.96709,12196.6875
-20.220903,-34.977554,12196.909
-20.223827,-34.987972,12197.069
-20.226757,-34.99841,12197.191
-20.229681,-35.008774,12197.223
-20.232626,-35.019276,12197.262
-20.23559,-35.02996,12197.368
-20.238552,-35.04067,12197.472
-20.24152,-35.051422,12197.597
-20.24449,-35.06219,12197.728
-20.247458,-35.072964,12197.8545
-20.250427,-35.083733,12197.988
-20.253395,-35.094498,12198.116
-20.256361,-35.105267,12198.249
-20.259329,-35.11603,12198.372
-20.2623,-35.126804,12198.506
-20.26527,-35.137573,12198.637
-20.268236,-35.14834,12198.766
-20.271206,-35.15911,12198.895
-20.274174,-35.169876,12199.0205
-20.277142,-35.180645,12199.151
-20.28011,-35.19141,12199.28
-20.283077,-35.20218,12199.408
-20.286047,-35.212944,12199.537
-20.289015,-35.223713,12199.667
-20.291983,-35.23448,12199.796
-20.29495,-35.245247,12199.923
-20.297916,-35.256016,12200.052
-20.300882,-35.26679,12200.181
-20.303852,-35.27755,12200.31
-20.30682,-35.28832,12200.441
-20.309788,-35.299084,12200.566
-20.31275,-35.309853,12200.698
-20.315722,-35.320618,12200.824
-20.318634,-35.331352,12201.111
-20.321577,-35.342052,12201.441
-20.324318,-35.352673,12202.471
-20.327127,-35.3631,12203.991
-20.330368,-35.373653,12204.676
-20.333517,-35.384552,12204.823
-20.336355,-35.395454,12205.387
-20.339294,-35.4062,12205.96
-20.342321,-35.417,12206.303
-20.345375,-35.427883,12206.356
-20.34839,-35.438824,12206.224
-20.35145,-35.4498,12205.719
-20.354345,-35.46079,12205.32
-20.357048,-35.471592,12205.626
-20.360008,-35.482258,12205.758
-20.36317,-35.49313,12205.15
-20.366034,-35.50413,12204.754
-20.36884,-35.514973,12204.668
-20.371695,-35.52572,12204.751
-20.374598,-35.536457,12204.897
-20.377523,-35.547203,12205.058
-20.380447,-35.557972,12205.219
-20.383368,-35.568745,12205.387
-20.386282,-35.579517,12205.562
-20.389194,-35.590282,12205.748
-20.392097,-35.60103,12205.941
-20.395,-35.61175,12206.141
-20.3979,-35.622433,12206.341
-20.400793,-35.633057,12206.518
-20.403677,-35.64357,12206.631
-20.406559,-35.654015,12206.673
-20.409426,-35.66423,12206.524
-20.412312,-35.674614,12206.389
-20.415243,-35.68541,12206.421
-20.418158,-35.696053,12206.374
-20.421059,-35.70654,12206.196
-20.423985,-35.717255,12206.088
-20.42692,-35.72807,12206.023
-20.429857,-35.73896,12205.995
-20.432796,-35.749897,12206.009
-20.43574,-35.76089,12206.067
-20.438656,-35.771706,12206.049
-20.441572,-35.782425,12205.963
-20.444513,-35.793457,12206.042
-20.447454,-35.80457,12206.213
-20.45037,-35.81537,12206.246
-20.453281,-35.826164,12206.284
-20.456196,-35.836964,12206.32
-20.459108,-35.847767,12206.36
-20.46202,-35.858566,12206.3955
-20.464931,-35.869366,12206.434
-20.467844,-35.88017,12206.468
-20.470755,-35.890965,12206.505
-20.47367,-35.901768,12206.544
-20.476582,-35.912567,12206.578
-20.47949,-35.923367,12206.614
-20.482405,-35.93417,12206.652
-20.48532,-35.94497,12206.6875
-20.488228,-35.955765,12206.725
-20.491138,-35.96656,12206.761
-20.494053,-35.977367,12206.798
-20.496965,-35.988163,12206.832
-20.499874,-35.998962,12206.869
-20.502789,-36.00976,12206.903
-20.505697,-36.02056,12206.946
-20.508612,-36.03136,12206.979
-20.51152,-36.04216,12207.014
-20.514433,-36.05296,12207.05
-20.517344,-36.063755,12207.085
-20.520256,-36.074554,12207.123
-20.523167,-36.085354,12207.157
-20.526077,-36.096153,12207.195
-20.528988,-36.106953,12207.23
-20.531898,-36.11775,12207.267
-20.53481,-36.128548,12207.303
-20.537722,-36.139347,12207.341
-20.540632,-36.150146,12207.373
-20.543541,-36.160942,12207.407
-20.546453,-36.17174,12207.444
-20.549364,-36.182537,12207.481
-20.552273,-36.193336,12207.517
-20.555185,-36.204136,12207.553
-20.558096,-36.21493,12207.589
-20.561152,-36.225815,12207.139
-20.564037,-36.236797,12206.712
-20.566952,-36.24774,12206.169
-20.569494,-36.25854,12206.764
-20.572186,-36.268963,12208.084
-20.57518,-36.279396,12209.26
-20.578447,-36.290127,12209.447
-20.581976,-36.301376,12207.698
-20.585121,-36.31305,12205.044
-20.58797,-36.324657,12202.218
-20.590364,-36.335884,12200.656
-20.593145,-36.346664,12199.19
-20.596153,-36.357548,12197.24
-20.598852,-36.368458,12195.829
-20.601568,-36.379135,12194.871
-20.604282,-36.389698,12194.433
-20.607094,-36.400192,12194.268
-20.60998,-36.410698,12194.171
-20.612892,-36.421265,12194.071
-20.615807,-36.43188,12193.945
-20.618715,-36.44253,12193.79
-20.621618,-36.453194,12193.606
-20.624521,-36.463863,12193.406
-20.627426,-36.474537,12193.177
-20.630331,-36.485203,12192.925
-20.633236,-36.49588,12192.642
-20.63615,-36.506565,12192.348
-20.639063,-36.517277,12192.023
-20.641987,-36.528034,12191.698
-20.644924,-36.53893,12191.423
-20.647848,-36.54963,12191.014
-20.650768,-36.56027,12190.512
-20.65365,-36.570503,12189.67
-20.656574,-36.581055,12188.814
-20.659544,-36.59207,12188.087
-20.662561,-36.603664,12187.636
-20.665617,-36.615753,12187.533
-20.668636,-36.627644,12187.472
-20.671629,-36.639343,12187.429
-20.674576,-36.650642,12187.264
-20.67755,-36.66229,12187.344
-20.680508,-36.673866,12187.504
-20.683416,-36.685,12187.519
-20.686321,-36.69609,12187.538
-20.689209,-36.70703,12187.489
-20.692097,-36.71798,12187.446
-20.69499,-36.72892,12187.403
-20.697876,-36.739864,12187.356
-20.700762,-36.75081,12187.312
-20.703651,-36.76175,12187.269
-20.70654,-36.772694,12187.229
-20.709429,-36.783638,12187.183
-20.712317,-36.79458,12187.139
-20.715204,-36.80552,12187.093
-20.718092,-36.816467,12187.047
-20.72098,-36.827408,12187.007
-20.723867,-36.83835,12186.963
-20.726755,-36.849293,12186.917
-20.729645,-36.860233,12186.871
-20.73253,-36.871178,12186.829
-20.73542,-36.88212,12186.782
-20.738306,-36.893063,12186.739
-20.741194,-36.904003,12186.693
-20.744081,-36.914944,12186.646
-20.74697,-36.925888,12186.604
-20.749857,-36.936825,12186.561
-20.752743,-36.947773,12186.514
-20.75563,-36.958714,12186.474
-20.758518,-36.969654,12186.431
-20.761154,-36.98049,12187.191
-20.764044,-36.99116,12187.947
-20.767178,-37.002056,12187.897
-20.770357,-37.013294,12186.893
-20.773273,-37.02468,12185.679
-20.77614,-37.035984,12184.315
-20.778517,-37.04704,12184.444
-20.780918,-37.057503,12186.118
-20.783474,-37.06762,12189.1
-20.78662,-37.077766,12191.638
-20.789862,-37.088406,12193.409
-20.792946,-37.09937,12194.775
-20.795963,-37.110455,12195.794
-20.799002,-37.12166,12196.309
-20.802017,-37.132977,12196.351
-20.804695,-37.14423,12196.957
-20.8076,-37.155323,12197.418
-20.81055,-37.166534,12197.644
-20.813477,-37.177803,12197.762
-20.816366,-37.189075,12197.848
-20.819237,-37.200336,12197.948
-20.822104,-37.211582,12198.068
-20.82497,-37.22282,12198.216
-20.82784,-37.234055,12198.383
-20.830706,-37.245285,12198.576
-20.83357,-37.25652,12198.785
-20.83643,-37.267742,12199.014
-20.839285,-37.278942,12199.252
-20.842129,-37.290077,12199.466
-20.844952,-37.301033,12199.58
-20.847816,-37.312397,12199.905
-20.850702,-37.324028,12200.468
-20.853582,-37.335674,12201.189
-20.856428,-37.347015,12201.903
-20.859243,-37.35806,12202.567
-20.861984,-37.368263,12202.802
-20.864716,-37.378277,12202.824
-20.867458,-37.388283,12202.679
-20.87026,-37.398834,12202.672
-20.873075,-37.409504,12202.646
-20.875906,-37.42024,12202.587
-20.878756,-37.43115,12202.572
-20.881618,-37.44222,12202.602
-20.884483,-37.45329,12202.626
-20.887333,-37.464134,12202.501
-20.89021,-37.475296,12202.497
-20.893091,-37.486458,12202.494
-20.89597,-37.497616,12202.486
-20.898848,-37.508774,12202.481
-20.901728,-37.519936,12202.477
-20.904606,-37.531097,12202.472
-20.907486,-37.54226,12202.471
-20.910362,-37.55342,12202.464
-20.91324,-37.564583,12202.454
-20.91612,-37.57574,12202.453
-20.918997,-37.586903,12202.443
-20.921877,-37.59806,12202.442
-20.924755,-37.609222,12202.437
-20.927631,-37.620377,12202.433
-20.93051,-37.63154,12202.428
-20.933388,-37.6427,12202.421
-20.936268,-37.65386,12202.414
-20.939146,-37.665016,12202.41
-20.942024,-37.676178,12202.406
-20.9449,-37.687336,12202.399
-20.947777,-37.698498,12202.391
-20.950657,-37.709652,12202.385
-20.953533,-37.720814,12202.382
-20.956411,-37.731976,12202.371
-20.959288,-37.743134,12202.369
-20.962164,-37.754288,12202.361
-20.965042,-37.765446,12202.356
-20.96792,-37.776608,12202.351
-20.970798,-37.78777,12202.346
-20.973673,-37.798923,12202.34
-20.976551,-37.81008,12202.333
-20.97943,-37.821243,12202.328
-20.982306,-37.8324,12202.321
-20.985182,-37.843555,12202.315
-20.988058,-37.854717,12202.305
-20.990936,-37.865875,12202.303
-20.99381,-37.87703,12202.3
-20.996689,-37.888187,12202.292
-20.999565,-37.899345,12202.281
-21.00244,-37.9105,12202.275
-21.00532,-37.92166,12202.269
-21.00784,-37.932697,12203.453
-21.010653,-37.943462,12204.93
-21.013712,-37.954384,12206.023
-21.016834,-37.965576,12206.523
-21.020035,-37.977043,12206.088
-21.02306,-37.988728,12205.174
-21.025866,-38.000362,12204.388
-21.028658,-38.011837,12203.755
-21.031193,-38.023087,12204.17
-21.034132,-38.034122,12204.368
-21.036991,-38.045303,12204.72
-21.03994,-38.056503,12204.913
-21.043114,-38.06791,12204.181
-21.046028,-38.079533,12203.33
-21.048477,-38.0909,12203.795
-21.051296,-38.10192,12204.392
-21.054258,-38.113094,12204.794
-21.057213,-38.124397,12205.047
-21.060123,-38.135757,12205.237
-21.063007,-38.147137,12205.426
-21.065882,-38.158512,12205.62
-21.068748,-38.169876,12205.834
-21.071625,-38.18123,12206.0625
-21.074497,-38.192574,12206.306
-21.077366,-38.2039,12206.557
-21.080236,-38.2152,12206.81
-21.083107,-38.226463,12207.048
-21.085966,-38.237656,12207.25
-21.088816,-38.248703,12207.336
-21.091639,-38.259388,12207.145
-21.094501,-38.270477,12207.038
-21.097391,-38.28184,12207.009
-21.100306,-38.29343,12207.095
-21.103231,-38.305252,12207.335
-21.106144,-38.31697,12207.578
-21.109034,-38.328518,12207.782
-21.111916,-38.33997,12207.956
-21.114773,-38.35114,12207.967
-21.117662,-38.362698,12208.1455
-21.12054,-38.374104,12208.258
-21.123438,-38.38574,12208.501
-21.126348,-38.397556,12208.887
-21.129215,-38.40897,12209.121
-21.13205,-38.42001,12209.139
-21.13492,-38.431446,12209.303
-21.137794,-38.44289,12209.471
-21.140669,-38.454327,12209.636
-21.143543,-38.465763,12209.805
-21.146416,-38.477203,12209.973
-21.149288,-38.488644,12210.137
-21.152163,-38.50008,12210.304
-21.155037,-38.51152,12210.47
-21.157911,-38.522957,12210.636
-21.160782,-38.534393,12210.8
-21.163656,-38.545834,12210.968
-21.166527,-38.557274,12211.134
-21.169401,-38.56871,12211.298
-21.172272,-38.580147,12211.463
-21.175146,-38.591583,12211.629
-21.178019,-38.603027,12211.801
-21.18089,-38.614464,12211.965
-21.183762,-38.6259,12212.129
-21.186634,-38.637337,12212.297
-21.189508,-38.648773,12212.46
-21.192377,-38.66021,12212.627
-21.19525,-38.67165,12212.791
-21.198124,-38.683086,12212.959
-21.200996,-38.694523,12213.124
-21.203867,-38.70596,12213.288
-21.206738,-38.717392,12213.455
-21.20961,-38.72883,12213.619
-21.212482,-38.74026,12213.782
-21.215353,-38.751698,12213.955
-21.218225,-38.76314,12214.116
-21.221094,-38.774574,12214.28
-21.223967,-38.78601,12214.439
-21.22684,-38.797443,12214.609
-21.22971,-38.80888,12214.777
-21.23258,-38.820316,12214.943
-21.23545,-38.83175,12215.104
-21.238321,-38.843185,12215.269
-21.241192,-38.854618,12215.436
-21.24405,-38.86605,12215.635
-21.247204,-38.87761,12214.896
-21.250233,-38.889454,12213.576
-21.253103,-38.90133,12212.079
-21.255646,-38.913006,12211.392
-21.258308,-38.92435,12211.165
-21.260984,-38.93556,12211.479
-21.26364,-38.94662,12212.4795
-21.26661,-38.957664,12213.199
-21.26964,-38.96896,12213.47
-21.27266,-38.980453,12213.248
-21.275536,-38.992043,12212.898
-21.278316,-39.003567,12212.658
-21.281351,-39.015118,12211.72
-21.284397,-39.02689,12210.05
-21.287247,-39.038734,12208.206
-21.289808,-39.050358,12207.2705
-21.29253,-39.061535,12207.052
-21.295456,-39.072548,12207.131
-21.298494,-39.083572,12207.263
-21.301565,-39.09467,12207.368
-21.30463,-39.10583,12207.431
-21.307684,-39.117027,12207.45
-21.310736,-39.128254,12207.442
-21.313782,-39.139503,12207.41
-21.316835,-39.150776,12207.354
-21.319887,-39.16208,12207.275
-21.322948,-39.173435,12207.184
-21.326014,-39.18488,12207.107
-21.329098,-39.19648,12207.113
-21.332209,-39.20847,12207.359
-21.335306,-39.2203,12207.634
-21.338383,-39.231945,12207.879
-21.341425,-39.24318,12207.949
-21.344471,-39.25441,12207.986
-21.347504,-39.265453,12207.875
-21.350548,-39.276478,12207.675
-21.353636,-39.28788,12207.585
-21.356733,-39.29939,12207.5205
-21.359854,-39.31102,12207.513
-21.362974,-39.322647,12207.515
-21.366116,-39.334385,12207.595
-21.369291,-39.34646,12207.918
-21.372467,-39.35848,12208.347
-21.375622,-39.370182,12208.734
-21.37873,-39.38138,12208.961
-21.381838,-39.392574,12209.188
-21.384947,-39.403767,12209.419
-21.388054,-39.414963,12209.644
-21.391163,-39.426155,12209.872
-21.394268,-39.43735,12210.098
-21.397379,-39.448544,12210.325
-21.400484,-39.459743,12210.558
-21.403591,-39.470936,12210.784
-21.4067,-39.48213,12211.012
-21.409807,-39.493324,12211.237
-21.412914,-39.504517,12211.465
-21.416021,-39.51571,12211.691
-21.41913,-39.5269,12211.922
-21.422235,-39.538094,12212.1455
-21.425343,-39.549286,12212.376
-21.428448,-39.56048,12212.601
-21.431555,-39.571674,12212.828
-21.434662,-39.582863,12213.053
-21.437767,-39.594055,12213.283
-21.440876,-39.605247,12213.51
-21.443983,-39.61644,12213.735
-21.447088,-39.627632,12213.966
-21.450193,-39.638824,12214.189
-21.453299,-39.650017,12214.418
-21.456406,-39.6612,12214.645
-21.459513,-39.672394,12214.87
-21.462618,-39.683582,12215.095
-21.465723,-39.694775,12215.324
-21.468828,-39.705967,12215.549
-21.471935,-39.717155,12215.781
-21.47504,-39.728348,12216.003
-21.478146,-39.739536,12216.2295
