Latitude,Longitude,Altitude (m)
55.235428,-122.89183,11477.679
55.21305,-122.885445,11477.9375
55.190624,-122.88124,11479.078
55.168232,-122.87748,11481.483
55.146046,-122.86759,11481.903
55.123745,-122.85714,11479.737
55.10114,-122.850525,11476.799
55.078335,-122.850296,11476.498
55.05577,-122.84937,11478.786
55.033592,-122.84095,11479.871
55.011284,-122.834435,11480.677
54.988804,-122.8307,11482.726
54.96641,-122.82416,11484.6045
54.943993,-122.81756,11486.2705
54.921528,-122.8101,11487.23
54.899048,-122.8004,11486.076
54.876286,-122.79685,11485.939
54.853634,-122.79039,11485.355
54.831062,-122.78219,11483.259
54.808395,-122.77494,11480.041
54.78557,-122.77251,11478.2295
54.762905,-122.769424,11477.653
54.740406,-122.765,11477.723
54.71802,-122.75909,11477.699
54.695614,-122.75351,11477.752
54.67321,-122.74702,11477.372
54.650753,-122.74146,11476.994
54.628292,-122.73569,11476.502
54.60589,-122.728355,11475.018
54.58342,-122.720955,11472.357
54.560852,-122.715706,11469.556
54.5382,-122.71414,11468.653
54.515743,-122.71077,11468.911
54.493385,-122.707985,11470.786
54.47117,-122.70225,11472.889
54.44896,-122.69517,11474.481
54.426743,-122.685036,11473.796
54.404213,-122.67938,11473.009
54.38158,-122.67696,11473.903
54.35912,-122.673676,11476.197
54.3369,-122.66657,11477.963
54.314674,-122.65791,11478.273
54.292282,-122.65115,11477.979
54.26985,-122.64375,11476.623
54.247345,-122.63895,11475.469
54.224876,-122.63416,11474.584
54.202503,-122.62824,11473.359
54.180046,-122.626724,11474.21
54.157825,-122.62076,11474.964
54.13559,-122.61611,11476.323
54.11339,-122.61008,11477.618
54.09122,-122.60199,11477.66
54.068882,-122.5963,11477.607
54.046505,-122.59128,11477.833
54.024193,-122.58493,11477.624
54.001854,-122.5798,11477.602
53.979504,-122.57638,11478.735
53.957302,-122.571236,11480.23
53.935165,-122.5652,11481.63
53.913044,-122.558784,11482.723
53.89097,-122.54979,11482.007
53.868694,-122.54469,11481.384
53.846405,-122.54058,11481.407
53.824265,-122.53361,11480.578
53.802082,-122.527664,11479.357
53.77984,-122.522606,11478.206
53.75758,-122.5182,11477.493
53.73537,-122.51289,11476.769
53.713127,-122.50862,11476.644
53.69089,-122.50422,11477.121
53.668728,-122.498436,11477.505
53.646595,-122.49164,11477.197
53.624355,-122.48696,11477.253
53.602215,-122.479164,11476.01
53.57994,-122.4746,11475.055
53.557682,-122.47152,11475.286
53.5356,-122.465576,11475.264
53.513515,-122.46043,11475.4
53.49148,-122.453094,11474.5
53.469364,-122.44586,11472.453
53.447086,-122.44164,11470.785
53.424778,-122.439415,11470.644
53.40266,-122.43436,11470.672
53.380608,-122.427155,11469.706
53.35838,-122.42354,11469.606
53.33618,-122.41962,11470.321
53.31409,-122.41292,11470.415
53.291924,-122.40777,11470.68
53.269768,-122.4003,11469.861
53.247482,-122.3947,11468.829
53.225094,-122.39178,11469.032
53.20282,-122.38815,11470.229
53.180695,-122.381165,11470.708
53.15849,-122.374664,11470.659
53.136177,-122.36929,11470.641
53.113853,-122.363625,11470.482
53.091465,-122.35989,11471.225
53.069183,-122.35407,11471.841
53.046837,-122.350586,11473.6
53.02457,-122.3455,11475.797
53.00237,-122.338066,11477.1875
52.980118,-122.329285,11476.909
52.957645,-122.32315,11476.207
52.93501,-122.322014,11477.765
52.912678,-122.31542,11478.847
52.890347,-122.308426,11479.18
52.867874,-122.30457,11480.429
52.845448,-122.301865,11483.354
52.8232,-122.297134,11487.019
52.801098,-122.28982,11490.103
52.778988,-122.27966,11490.955
52.756634,-122.27386,11491.675
52.734325,-122.2656,11490.858
52.71191,-122.259315,11489.378
52.689396,-122.257195,11489.475
52.66712,-122.251915,11489.588
52.644962,-122.24396,11488.231
52.6226,-122.23975,11487.323
52.60028,-122.23413,11486.141
52.57791,-122.230125,11485.529
52.555603,-122.2257,11485.341
52.53328,-122.223114,11486.666
52.51111,-122.21896,11488.83
52.48899,-122.215195,11492.153
52.46704,-122.20736,11494.546
52.444992,-122.20082,11496.592
52.423008,-122.19009,11495.875
52.400734,-122.183975,11494.542
52.3784,-122.179016,11493.157
52.356106,-122.174866,11492.15
52.333923,-122.17052,11491.527
52.311863,-122.16421,11490.245
52.2897,-122.16258,11490.791
52.267727,-122.15881,11492.195
52.245827,-122.15638,11495.317
52.22413,-122.149796,11498.13
52.20242,-122.14105,11499.402
52.18052,-122.133446,11499.553
52.158447,-122.12862,11499.931
52.13642,-122.12192,11499.508
52.114296,-122.11767,11499.551
52.092205,-122.11455,11500.733
52.070316,-122.105705,11500.057
52.048317,-122.096794,11497.249
52.02604,-122.09191,11494.267
52.00373,-122.08802,11491.574
51.981533,-122.082535,11488.322
51.95926,-122.08007,11486.131
51.93717,-122.072334,11482.224
51.91495,-122.06408,11476.098
51.89238,-122.06315,11471.519
51.86999,-122.05844,11466.563
51.847748,-122.049545,11458.7705
51.82516,-122.046646,11451.148
51.802574,-122.0433,11443.511
51.77991,-122.04522,11438.75
51.75744,-122.04796,11437.755
51.735302,-122.047516,11439.345
51.713043,-122.060326,11451.357
51.691795,-122.05837,11466.998
51.67108,-122.042946,11479.244
51.64996,-122.02711,11487.438
51.62825,-122.0154,11493.23
51.606308,-122.00529,11497.024
51.584236,-121.998924,11500.571
51.562317,-121.991844,11503.428
51.540527,-121.98194,11503.942
51.51861,-121.973976,11502.884
51.49663,-121.96611,11500.089
51.47445,-121.96507,11499.093
51.452545,-121.960724,11498.297
51.430702,-121.957275,11498.266
51.408936,-121.95316,11498.776
51.387215,-121.94766,11499.165
51.36547,-121.942154,11499.387
51.343647,-121.937904,11500.106
51.321846,-121.93281,11500.977
51.300076,-121.927345,11501.782
51.278297,-121.92009,11501.498
51.256416,-121.91301,11500.047
51.234383,-121.9072,11497.974
51.21223,-121.90451,11496.934
51.19016,-121.90331,11497.913
51.16829,-121.901,11500.6
51.146652,-121.893974,11502.597
51.124905,-121.88898,11504.955
51.10313,-121.88393,11507.678
51.08129,-121.88257,11512.824
51.059853,-121.870316,11514.677
51.038013,-121.86413,11516.17
51.0161,-121.856155,11516.302
50.994053,-121.849396,11515.504
50.971973,-121.84103,11512.735
50.949696,-121.83654,11509.901
50.92743,-121.83255,11507.262
50.905197,-121.828964,11505.079
50.883022,-121.82579,11503.648
50.860836,-121.82588,11504.895
50.838936,-121.82268,11507.396
50.81723,-121.81445,11508.556
50.79531,-121.809166,11509.84
50.77342,-121.79987,11509.017
50.7513,-121.79257,11506.858
50.72899,-121.7906,11506.131
50.70686,-121.786316,11505.698
50.684883,-121.77865,11503.711
50.662724,-121.773575,11501.447
50.64045,-121.7716,11500.61
50.618305,-121.76781,11500.396
50.596138,-121.76824,11503.264
50.574276,-121.76452,11507.312
50.5526,-121.75621,11510.166
50.530785,-121.74754,11511.475
50.508762,-121.7409,11512.107
50.486683,-121.733604,11511.554
50.46451,-121.72873,11511.012
50.44229,-121.72784,11512.712
50.420345,-121.725975,11516.396
50.39876,-121.716125,11517.934
50.376965,-121.70853,11518.279
50.355003,-121.701965,11517.842
50.332912,-121.69719,11517.464
50.31086,-121.69313,11517.569
50.288815,-121.69266,11520.214
50.267094,-121.68918,11524.069
50.245586,-121.681114,11526.758
50.22391,-121.675964,11529.794
50.202255,-121.66882,11532.093
50.18053,-121.66168,11533.527
50.15876,-121.654,11533.651
50.136875,-121.64751,11532.93
50.11493,-121.6435,11532.608
50.093086,-121.63855,11532.206
50.071327,-121.63212,11530.85
50.049473,-121.62767,11529.558
50.027626,-121.62406,11528.821
50.005836,-121.621826,11529.471
49.98428,-121.61522,11529.286
49.962635,-121.61003,11528.961
49.941,-121.60237,11527.11
49.919174,-121.59702,11524.794
49.89726,-121.59398,11523.22
49.87544,-121.58992,11521.883
49.853683,-121.58494,11520.304
49.831844,-121.5826,11519.965
49.81008,-121.58024,11520.999
49.788536,-121.57197,11520.329
49.76675,-121.56765,11519.947
49.74489,-121.56507,11520.877
49.723225,-121.55647,11519.904
49.70132,-121.55312,11519.707
49.679447,-121.54864,11519.751
49.657574,-121.54457,11520.287
49.6357,-121.54278,11522.677
49.613995,-121.53936,11526.281
49.592438,-121.53221,11529.212
49.57085,-121.52147,11529.385
49.54891,-121.51403,11528.272
49.526745,-121.5086,11526.759
49.50456,-121.50281,11524.604
49.482384,-121.49537,11520.776
49.46,-121.494194,11518.478
49.437862,-121.48837,11515.329
49.415718,-121.48159,11510.6875
49.39344,-121.474556,11504.238
49.37095,-121.47252,11498.431
49.34823,-121.486595,11502.356
49.326614,-121.488815,11510.764
49.30566,-121.479744,11518.122
49.284492,-121.47127,11524.78
49.26311,-121.46009,11529.092
49.2414,-121.45181,11532.217
49.21956,-121.44325,11533.768
49.197556,-121.438286,11535.483
49.17558,-121.43635,11539.062
49.153942,-121.429276,11541.905
49.13236,-121.42019,11542.838
49.110577,-121.412575,11542.417
49.0886,-121.40976,11543.097
49.066753,-121.40777,11545.432
49.0452,-121.40178,11547.437
49.023685,-121.39455,11548.409
49.00203,-121.389145,11549.258
48.980385,-121.38199,11548.978
48.958656,-121.37469,11547.3
48.936714,-121.372444,11546.857
48.914864,-121.37054,11547.996
48.89322,-121.36695,11550.033
48.871655,-121.363464,11553.156
48.850266,-121.352165,11553.141
48.828453,-121.34616,11552.524
48.806454,-121.34416,11553.444
48.784584,-121.34342,11556.768
48.76292,-121.34521,11564.228
48.7418,-121.33782,11571.358
48.720657,-121.33086,11578.398
48.69949,-121.31916,11582.718
48.677986,-121.31141,11586.095
48.656387,-121.30079,11586.801
48.634613,-121.28656,11582.419
48.61235,-121.275246,11573.863
48.589672,-121.26993,11563.791
48.566853,-121.272194,11556.099
48.54439,-121.27478,11551.291
48.5224,-121.27356,11547.707
48.50059,-121.27048,11544.582
48.47876,-121.268974,11542.911
48.456963,-121.27052,11544.613
48.435585,-121.26298,11545.072
48.41402,-121.2584,11545.821
48.39242,-121.2508,11545.244
48.37067,-121.24397,11543.786
48.348736,-121.24535,11546.3125
48.32717,-121.24619,11553.508
48.306267,-121.236465,11560.387
48.285305,-121.230576,11569.17
48.264572,-121.2157,11575.123
48.243454,-121.20718,11581.241
48.222248,-121.201775,11589.107
48.201336,-121.19014,11595.369
48.180283,-121.17904,11600.123
48.159103,-121.16493,11601.467
48.137516,-121.15666,11602.137
48.11597,-121.1458,11600.479
48.094173,-121.14247,11600.339
48.07272,-121.128975,11596.282
48.050854,-121.120384,11590.541
48.028725,-121.11662,11585.576
48.0067,-121.1126,11581.289
47.9848,-121.10775,11577.319
47.962997,-121.096794,11570.417
47.940746,-121.09463,11565.103
47.918556,-121.094925,11562.921
47.896706,-121.092705,11562.867
47.875145,-121.086685,11563.184
47.85359,-121.07955,11563.385
47.831955,-121.07064,11562.452
47.810116,-121.06467,11561.831
47.78818,-121.06442,11564.711
47.766613,-121.062164,11570.447
47.74552,-121.05005,11573.987
47.724194,-121.0386,11575.4795
47.702568,-121.03037,11576.389
47.680878,-121.021416,11576.159
47.65913,-121.01269,11574.736
47.637302,-121.00608,11573.106
47.615486,-121.00112,11572.12
47.593792,-120.99465,11571.026
47.572155,-120.985275,11568.239
47.55034,-120.97587,11563.525
47.52824,-120.97212,11559.737
47.50616,-120.97218,11559.068
47.48453,-120.968155,11559.692
47.463127,-120.959885,11559.483
47.441578,-120.954704,11560.116
47.420097,-120.947754,11560.686
47.398605,-120.941444,11561.484
47.37717,-120.93651,11563.249
47.355812,-120.93555,11568.334
47.33492,-120.926025,11572.451
47.313984,-120.9156,11575.044
47.292877,-120.90499,11575.807
47.27157,-120.8958,11575.211
47.250095,-120.89045,11575.161
47.2287,-120.887436,11576.986
47.207626,-120.87893,11577.866
47.186455,-120.872955,11579.17
47.165333,-120.863945,11579.269
47.144047,-120.8571,11579.211
47.122692,-120.85187,11579.844
47.101418,-120.84463,11580.126
47.08008,-120.83975,11581.365
47.058823,-120.833046,11582.664
47.037567,-120.82569,11583.71
47.016205,-120.819664,11585.231
46.994877,-120.81178,11586.273
46.97345,-120.80622,11588.029
46.952072,-120.801094,11590.837
46.930836,-120.794075,11593.769
46.909622,-120.78686,11596.774
46.88843,-120.7786,11599.271
46.86717,-120.770195,11601.137
46.845818,-120.76117,11601.937
46.824345,-120.75385,11602.461
46.802845,-120.74659,11602.675
46.781326,-120.74002,11602.9
46.75976,-120.73654,11604.876
46.738403,-120.731064,11607.709
46.717163,-120.724365,11610.846
46.695984,-120.71385,11612.215
46.674564,-120.70471,11612.341
46.65297,-120.695854,11611.173
46.63117,-120.690414,11610.408
46.60941,-120.68354,11609.284
46.58765,-120.67553,11607.128
46.565754,-120.66858,11604.408
46.54373,-120.6652,11603.04
46.52179,-120.66533,11605.146
46.500347,-120.65683,11606.441
46.47882,-120.649124,11607.34
46.45711,-120.64706,11610.967
46.435665,-120.642365,11616.211
46.41443,-120.63772,11623.348
46.393406,-120.62897,11630.395
46.372406,-120.61792,11636.108
46.351254,-120.605675,11639.597
46.329872,-120.59368,11640.608
46.308167,-120.588104,11642.323
46.286606,-120.58026,11643.495
46.265118,-120.57074,11643.108
46.243454,-120.56641,11643.872
46.22195,-120.56028,11644.903
46.200542,-120.553795,11646.061
46.179226,-120.54383,11645.407
46.157757,-120.53313,11642.272
46.136013,-120.52227,11636.162
46.11387,-120.51929,11630.981
46.09182,-120.51569,11626.474
46.06993,-120.51161,11622.454
46.04808,-120.50941,11620.126
46.02639,-120.50639,11619.303
46.004814,-120.50458,11620.934
45.983486,-120.50083,11624.354
45.96232,-120.49558,11629.054
45.941265,-120.48803,11633.969
45.920235,-120.47665,11636.981
45.898937,-120.467735,11639.202
45.87756,-120.45769,11639.772
45.856003,-120.44923,11639.291
45.834328,-120.44452,11639.659
45.812813,-120.43849,11640.258
45.79146,-120.42649,11637.815
45.76977,-120.41721,11633.458
45.747845,-120.410286,11628.152
45.72576,-120.410576,11625.682
45.70407,-120.40912,11625.434
45.68275,-120.40363,11625.539
45.661465,-120.40042,11627.442
45.640358,-120.39638,11630.945
45.619453,-120.389015,11634.443
45.598503,-120.38321,11638.84
45.57764,-120.376045,11643.515
45.55679,-120.36866,11648.384
45.53595,-120.36059,11653.094
45.515087,-120.35203,11657.336
45.494183,-120.341156,11659.732
45.473,-120.33406,11662.118
45.4518,-120.32619,11664.004
45.43054,-120.32006,11666.263
45.40935,-120.310616,11667.124
45.387997,-120.30326,11667.564
45.366547,-120.298256,11668.844
45.345203,-120.292786,11670.788
45.32393,-120.28784,11673.852
45.302845,-120.2785,11675.7705
45.28161,-120.2713,11677.573
45.260345,-120.26342,11678.834
45.23899,-120.25828,11680.973
45.217728,-120.25427,11684.756
45.19673,-120.24547,11687.747
45.17569,-120.235695,11689.325
45.154465,-120.22677,11689.773
45.1331,-120.21892,11689.447
45.111603,-120.2157,11690.775
45.090366,-120.20844,11691.7295
45.06916,-120.19792,11690.453
45.047665,-120.18902,11687.559
45.02596,-120.1785,11681.877
45.003864,-120.17364,11676.151
44.98168,-120.172714,11672.509
44.959778,-120.16804,11669.102
44.937817,-120.16961,11669.558
44.916172,-120.17452,11676.34
44.895325,-120.16756,11683.793
44.874577,-120.15575,11689.504
44.853474,-120.145805,11694.37
44.832188,-120.13407,11697.164
44.81064,-120.122765,11697.77
44.788795,-120.11524,11697.915
44.766926,-120.11051,11698.987
44.74521,-120.106804,11701.666
44.72376,-120.10075,11704.905
44.702488,-120.088905,11705.589
44.68092,-120.07815,11704.014
44.659008,-120.071526,11702.143
44.63709,-120.06567,11700.242
44.615173,-120.065834,11701.617
44.593796,-120.058624,11702.605
44.57249,-120.05046,11702.69
44.55111,-120.04123,11701.205
44.529564,-120.03086,11697.229
44.507687,-120.0243,11692.513
44.485687,-120.021385,11688.904
44.46378,-120.022766,11688.875
44.442272,-120.02377,11692.807
44.42125,-120.02021,11698.847
44.400482,-120.01096,11704.276
44.3796,-120.0001,11708.192
44.35844,-119.990425,11711.024
44.337124,-119.98086,11712.592
44.315716,-119.96969,11711.711
44.29402,-119.9643,11711.216
44.272373,-119.96033,11711.876
44.250954,-119.95247,11711.704
44.229404,-119.94934,11713.278
44.20805,-119.94458,11715.96
44.18681,-119.9391,11719.538
44.16567,-119.929344,11721.81
44.144337,-119.9193,11722.468
44.122738,-119.913284,11723.497
44.10118,-119.907295,11724.888
44.079773,-119.9002,11726.019
44.058434,-119.89423,11727.479
44.03718,-119.89046,11730.529
44.016216,-119.88358,11733.649
43.995335,-119.87692,11737.021
43.974552,-119.86767,11739.238
43.953663,-119.858055,11739.92
43.93259,-119.85026,11739.849
43.911453,-119.84118,11738.112
43.89013,-119.836555,11736.956
43.868923,-119.830734,11735.722
43.847744,-119.82606,11734.99
43.826633,-119.82168,11735.003
43.805603,-119.81498,11734.597
43.784477,-119.807556,11733.335
43.763157,-119.80261,11732.496
43.741863,-119.79593,11731.154
43.72048,-119.79125,11730.361
43.69917,-119.78352,11728.503
43.67768,-119.78228,11729.066
43.656437,-119.78335,11733.689
43.635735,-119.77985,11740.424
43.615322,-119.77261,11747.653
43.59499,-119.75809,11751.4375
43.574207,-119.74421,11751.631
43.552917,-119.73582,11750.666
43.531513,-119.73122,11750.313
43.510315,-119.725296,11749.847
43.48918,-119.723076,11751.345
43.468353,-119.71584,11752.321
43.447468,-119.707954,11752.409
43.426456,-119.697685,11750.148
43.405098,-119.692764,11748.159
43.38379,-119.68791,11746.46
43.36257,-119.68533,11746.345
43.341637,-119.68125,11747.241
43.3209,-119.6751,11748.174
43.30018,-119.66796,11748.618
43.279354,-119.66109,11748.656
43.25839,-119.65858,11750.671
43.237625,-119.654625,11754.098
43.21711,-119.64348,11755.165
43.196323,-119.63441,11754.776
43.175312,-119.6289,11754.638
43.154343,-119.62369,11754.873
43.13348,-119.61855,11755.539
43.112747,-119.61162,11755.73
43.091972,-119.60808,11757.304
43.071392,-119.602486,11759.282
43.050835,-119.597885,11762.311
43.030327,-119.592285,11766.022
43.00983,-119.58645,11770.436
42.989372,-119.57427,11772.142
42.968513,-119.56239,11770.957
42.947094,-119.561874,11772.774
42.92606,-119.55754,11775.72
42.905296,-119.55133,11778.967
42.884678,-119.54579,11782.993
42.864243,-119.53834,11786.855
42.843895,-119.52771,11788.753
42.82331,-119.52101,11790.595
42.80276,-119.51068,11790.275
42.78199,-119.5,11787.256
42.760803,-119.49531,11784.452
42.739506,-119.497,11785.396
42.718708,-119.49161,11786.634
42.697964,-119.48665,11788.592
42.67729,-119.47873,11789.792
42.656498,-119.470436,11789.95
42.63551,-119.46631,11791.235
42.614643,-119.46285,11794.133
42.594032,-119.45631,11797.135
42.573433,-119.449684,11800.271
42.55287,-119.43667,11800.002
42.53184,-119.42396,11796.028
42.5102,-119.417946,11791.475
42.48836,-119.41742,11789.176
42.46679,-119.41847,11790.321
42.44573,-119.41269,11791.67
42.42472,-119.40506,11792.352
42.403595,-119.39673,11791.92
42.38228,-119.39274,11792.606
42.361134,-119.38675,11793.358
42.340057,-119.37897,11793.181
42.318832,-119.373634,11793.37
42.29762,-119.367744,11793.667
42.27636,-119.36559,11796.197
42.255367,-119.361855,11800.434
42.234665,-119.35065,11802.487
42.213722,-119.33766,11801.121
42.19229,-119.330376,11798.949
42.17077,-119.32555,11797.054
42.149403,-119.32045,11795.214
42.128094,-119.323395,11797.972
42.107445,-119.32338,11804.347
42.087395,-119.316635,11811.232
42.06747,-119.304596,11815.908
42.047245,-119.291855,11817.711
42.02651,-119.2843,11819.047
42.005703,-119.27211,11817.088
41.984413,-119.26635,11814.922
41.963,-119.26392,11814.326
41.94175,-119.26069,11815.027
41.92071,-119.255356,11816.134
41.89976,-119.249306,11817.392
41.878883,-119.240555,11817.339
41.857826,-119.234856,11817.461
41.836853,-119.22308,11814.34
41.81547,-119.21765,11811.057
41.794075,-119.212135,11807.412
41.77267,-119.208336,11804.253
41.75138,-119.204796,11801.807
41.73014,-119.20885,11804.453
41.709602,-119.206375,11809.311
41.68944,-119.19806,11813.594
41.669273,-119.17912,11811.389
41.648094,-119.173965,11809.479
41.626827,-119.172554,11809.719
41.605873,-119.17416,11814.05
41.585583,-119.171555,11820.804
41.565826,-119.151215,11820.556
41.54523,-119.12972,11811.792
41.52324,-119.1295,11805.033
41.501408,-119.13298,11802.214
41.480225,-119.13539,11803.226
41.459675,-119.13671,11808.235
41.439713,-119.13332,11815.393
41.419983,-119.13267,11826.732
41.400795,-119.12542,11839.215
41.381794,-119.11279,11850.127
41.362602,-119.09444,11856.076
41.3428,-119.068184,11851.862
41.32149,-119.06297,11847.63
41.300167,-119.05458,11841.121
41.278603,-119.05322,11835.8125
41.257183,-119.056076,11834.272
41.23628,-119.05573,11835.31
41.21572,-119.0506,11836.834
41.195194,-119.04075,11836.425
