Latitude,Longitude,Altitude (m)
-19.578682,-32.613213,12162.848
-19.584904,-32.634293,12162.557
-19.591019,-32.654602,12162.941
-19.597372,-32.67735,12161.543
-19.603662,-32.69934,12159.916
-19.610056,-32.72186,12157.396
-19.616335,-32.743122,12155.277
-19.622269,-32.761013,12156.111
-19.628098,-32.77864,12158.903
-19.634298,-32.800793,12159.472
-19.640585,-32.823727,12158.662
-19.646713,-32.844177,12159.082
-19.652794,-32.86412,12160.386
-19.658684,-32.882862,12163.361
-19.664572,-32.90206,12167.13
-19.670502,-32.922222,12170.945
-19.676884,-32.9469,12171.131
-19.682835,-32.966732,12173.629
-19.688786,-32.986286,12177.086
-19.694962,-33.008926,12178.594
-19.701468,-33.034668,12176.43
-19.707922,-33.05865,12173.42
-19.71439,-33.081673,12169.912
-19.720581,-33.101715,12168.2705
-19.726725,-33.12159,12167.466
-19.732988,-33.143524,12165.458
-19.739157,-33.16465,12163.703
-19.74513,-33.183647,12163.88
-19.751026,-33.202297,12165.555
-19.756859,-33.221077,12168.424
-19.762775,-33.24119,12171.283
-19.768904,-33.26358,12172.581
-19.775015,-33.28544,12173.633
-19.780914,-33.30484,12176.53
-19.786894,-33.325363,12179.401
-19.792963,-33.34721,12181.39
-19.79992,-33.377506,12175.425
-19.806593,-33.403324,12168.649
-19.812956,-33.423965,12164.329
-19.819172,-33.44374,12161.361
-19.825268,-33.463367,12159.363
-19.831324,-33.483192,12157.995
-19.83727,-33.502346,12157.926
-19.843298,-33.522686,12157.875
-19.849474,-33.544743,12156.739
-19.85535,-33.563572,12158.041
-19.861341,-33.583733,12159.472
-19.86747,-33.60589,12159.672
-19.87377,-33.629402,12158.138
-19.880098,-33.652622,12155.697
-19.886013,-33.67136,12156.273
-19.89188,-33.69012,12158.244
-19.897776,-33.71023,12160.291
-19.903793,-33.731766,12161.563
-19.909855,-33.7535,12162.428
-19.916014,-33.775974,12162.343
-19.92222,-33.798717,12161.375
-19.92822,-33.819145,12161.721
-19.934216,-33.83949,12162.653
-19.940407,-33.862137,12162.024
-19.946442,-33.883102,12162.113
-19.952066,-33.899952,12166.057
-19.957993,-33.92076,12168.789
-19.964,-33.943043,12170.314
-19.969992,-33.964424,12172.024
-19.976437,-33.989956,12169.983
-19.982492,-34.011204,12169.516
-19.988552,-34.031994,12169.56
-19.994822,-34.055424,12167.569
-20.001001,-34.07749,12165.7
-20.007317,-34.10043,12162.697
-20.013573,-34.122803,12159.381
-20.019392,-34.140728,12159.556
-20.02507,-34.15796,12162.228
-20.030922,-34.178303,12164.219
-20.03683,-34.199574,12165.759
-20.0429,-34.22199,12166.249
-20.049215,-34.246536,12164.236
-20.055357,-34.2688,12162.59
-20.061415,-34.28972,12161.757
-20.067217,-34.308437,12163.192
-20.073244,-34.32994,12163.514
-20.079268,-34.351856,12163.268
-20.085323,-34.37366,12162.736
-20.09161,-34.39755,12160.081
-20.097761,-34.4198,12157.52
-20.103727,-34.43984,12156.487
-20.10948,-34.458263,12157.611
-20.115147,-34.476765,12160.118
-20.120876,-34.496723,12162.635
-20.126759,-34.518406,12164.142
-20.132711,-34.54052,12164.937
-20.138737,-34.56298,12164.893
-20.14479,-34.585358,12164.255
-20.150656,-34.6055,12165.048
-20.156713,-34.627575,12164.706
-20.162699,-34.649258,12164.188
-20.168636,-34.67022,12164.045
-20.17448,-34.690315,12164.808
-20.180227,-34.709934,12166.507
-20.186216,-34.732502,12166.291
-20.192272,-34.755608,12164.781
-20.1981,-34.77565,12165.024
-20.203989,-34.796368,12165.326
-20.209755,-34.816463,12166.404
-20.215675,-34.83821,12166.514
-20.22174,-34.86133,12165.058
-20.227709,-34.88298,12163.886
-20.23353,-34.90293,12164.028
-20.239426,-34.924084,12163.754
-20.245413,-34.946392,12162.421
-20.251076,-34.965343,12163.453
-20.25677,-34.98484,12165.139
-20.262447,-35.00489,12167.151
-20.26815,-35.025307,12169.307
-20.273922,-35.046516,12171.023
-20.279823,-35.068924,12171.544
-20.285673,-35.090546,12172.042
-20.291485,-35.111538,12172.821
-20.297016,-35.13003,12175.858
-20.302835,-35.151844,12177.263
-20.30857,-35.17307,12178.726
-20.31445,-35.19511,12179.347
-20.32045,-35.21816,12178.573
-20.326283,-35.239204,12178.528
-20.33226,-35.261623,12177.29
-20.338259,-35.284367,12175.072
-20.34429,-35.306957,12172.179
-20.35008,-35.32701,12170.836
-20.35572,-35.345848,12171.209
-20.3614,-35.36591,12171.663
-20.367203,-35.3876,12171.129
-20.37314,-35.41034,12169.319
-20.378933,-35.431213,12168.336
-20.384645,-35.451176,12168.339
-20.390448,-35.472435,12167.821
-20.396313,-35.494404,12166.572
-20.402174,-35.516014,12165.215
-20.407896,-35.53607,12165.044
-20.413538,-35.555614,12165.928
-20.41889,-35.57286,12169.665
-20.424662,-35.594986,12170.992
-20.430382,-35.616814,12171.917
-20.43609,-35.63777,12173.194
-20.441957,-35.660263,12173.207
-20.447718,-35.68153,12173.619
-20.453516,-35.702927,12173.841
-20.459528,-35.72666,12171.819
-20.465414,-35.74878,12169.896
-20.471066,-35.768112,12170.059
-20.476679,-35.787586,12171.122
-20.482178,-35.806683,12173.4
-20.487665,-35.826088,12176.392
-20.493347,-35.847828,12178.113
-20.499098,-35.870266,12178.803
-20.504896,-35.8926,12178.905
-20.510553,-35.91316,12180.041
-20.516233,-35.93399,12181.302
-20.522089,-35.956734,12181.05
-20.528019,-35.979946,12179.564
-20.533895,-36.00211,12178.024
-20.539345,-36.01994,12179.949
-20.544994,-36.040318,12181.439
-20.551266,-36.0675,12177.248
-20.557413,-36.092205,12172.153
-20.563606,-36.115814,12166.439
-20.569458,-36.13612,12162.712
-20.574827,-36.15205,12163.627
-20.580545,-36.172733,12163.214
-20.586248,-36.194126,12162.438
-20.59187,-36.214237,12162.736
-20.597448,-36.234142,12163.886
-20.603125,-36.25549,12164.481
-20.60855,-36.274456,12167.157
-20.614017,-36.29389,12170.626
-20.619585,-36.315002,12173.485
-20.624878,-36.33349,12178.638
-20.630344,-36.353897,12183.425
-20.635769,-36.374477,12188.323
-20.641508,-36.39802,12190.729
-20.64738,-36.422466,12191.007
-20.653492,-36.44814,12188.522
-20.66004,-36.477142,12180.863
-20.666454,-36.503452,12171.801
-20.672424,-36.52417,12165.52
-20.678038,-36.54193,12162.58
-20.683668,-36.56124,12160.324
-20.689089,-36.579437,12160.184
-20.694551,-36.598446,12160.992
-20.70009,-36.618797,12161.817
-20.70573,-36.640266,12162.167
-20.711382,-36.661537,12162.691
-20.717222,-36.684566,12161.737
-20.722982,-36.70679,12160.66
-20.728476,-36.72613,12161.75
-20.734291,-36.749065,12160.755
-20.740198,-36.773087,12157.999
-20.74553,-36.790512,12159.872
-20.750624,-36.806,12165.663
-20.75592,-36.825485,12170.848
-20.761484,-36.848305,12173.797
-20.76713,-36.87132,12175.628
-20.772655,-36.89246,12178.245
-20.778418,-36.91564,12179.224
-20.784073,-36.93772,12180.272
-20.789864,-36.960648,12180.27
-20.795633,-36.983246,12179.817
-20.80098,-37.001457,12182.7295
-20.806532,-37.02227,12185.019
-20.812035,-37.043503,12187.164
-20.817457,-37.063683,12190.297
-20.822985,-37.084892,12193.153
-20.828537,-37.10657,12195.658
-20.834263,-37.12974,12196.691
-20.840595,-37.15836,12192.023
-20.846558,-37.18208,12188.184
-20.852436,-37.203842,12185.239
-20.858248,-37.225674,12182.412
-20.864044,-37.247646,12179.501
-20.869652,-37.26781,12178.218
-20.875124,-37.286865,12178.853
-20.880672,-37.30745,12179.541
-20.886284,-37.329044,12179.9
-20.891748,-37.349194,12181.593
-20.897036,-37.36778,12185.481
-20.902582,-37.389603,12188.052
-20.908209,-37.41254,12189.454
-20.913925,-37.43567,12190.012
-20.919912,-37.460915,12188.012
-20.925592,-37.4826,12187.467
-20.931488,-37.50599,12185.608
-20.937508,-37.53084,12181.769
-20.943161,-37.551544,12180.215
-20.94873,-37.57136,12180.241
-20.954456,-37.593594,12179.321
-20.960138,-37.615654,12178.394
-20.965832,-37.637554,12177.61
-20.971151,-37.65587,12180.126
-20.976662,-37.676598,12182.402
-20.98252,-37.70136,12181.677
-20.988386,-37.725506,12180.051
-20.994055,-37.746826,12179.927
-20.999664,-37.767834,12180.56
-21.005518,-37.791714,12179.2295
-21.01099,-37.811787,12180.364
-21.016422,-37.831394,12183.001
-21.02211,-37.854378,12183.875
-21.028048,-37.87974,12182.113
-21.033857,-37.90303,12180.526
-21.039621,-37.925343,12179.347
-21.045303,-37.947067,12178.759
-21.050879,-37.96794,12179.253
-21.0563,-37.98764,12181.488
-21.061775,-38.008427,12184.007
-21.067196,-38.02913,12187.226
-21.072546,-38.049377,12191.48
-21.078352,-38.07439,12192.367
-21.084097,-38.09852,12192.467
-21.090017,-38.123337,12190.986
-21.096125,-38.149517,12187.087
-21.101942,-38.1721,12184.556
-21.107487,-38.191727,12184.724
-21.11302,-38.212177,12185.639
-21.118711,-38.234806,12185.573
-21.12424,-38.25591,12186.656
-21.129677,-38.276165,12189.071
-21.135014,-38.296204,12192.645
-21.140776,-38.3208,12193.201
-21.146904,-38.34865,12189.608
-21.152939,-38.374107,12185.357
-21.158545,-38.39448,12184.223
-21.164078,-38.41478,12184.338
-21.169788,-38.437878,12183.062
-21.175514,-38.461,12181.413
-21.181044,-38.481762,12181.527
-21.186375,-38.500942,12183.905
-21.191753,-38.5215,12186.615
-21.197039,-38.541794,12190.315
-21.202766,-38.566437,12191.03
-21.208757,-38.593307,12188.478
-21.214514,-38.616573,12186.815
-21.219955,-38.63634,12187.898
-21.225471,-38.657726,12188.901
-21.231102,-38.68096,12188.669
-21.236868,-38.705208,12187.003
-21.242844,-38.730892,12183.103
-21.2487,-38.754826,12179.168
-21.2548,-38.78066,12172.915
-21.260872,-38.805958,12165.607
-21.266727,-38.82843,12159.635
-21.272297,-38.84831,12156.235
-21.277552,-38.866196,12156.0625
-21.28276,-38.884922,12157.458
-21.288046,-38.905426,12159.031
-21.293495,-38.927788,12159.739
-21.299086,-38.951157,12159.455
-21.304548,-38.972813,12160.1
-21.310059,-38.994865,12160.6875
-21.315445,-39.01616,12161.954
-21.320923,-39.03826,12162.922
-21.325825,-39.054245,12169.402
-21.330997,-39.072292,12177.221
-21.336575,-39.094154,12183.612
-21.342896,-39.12118,12185.36
-21.349218,-39.145355,12187.021
-21.355862,-39.170208,12187.002
-21.36232,-39.192234,12188.014
-21.368713,-39.2128,12190.184
-21.37532,-39.235542,12190.937
-21.38208,-39.25959,12189.84
-21.388832,-39.282814,12188.168
-21.395788,-39.307312,12184.596
-21.40217,-39.32585,12184.914
-21.408537,-39.34458,12186.624
-21.414627,-39.362022,12190.795
-21.421387,-39.386276,12190.816
-21.428387,-39.41253,12187.517
-21.435072,-39.43402,12186.018
-21.441479,-39.452538,12187.26
-21.447622,-39.469734,12191.146
-21.453886,-39.48936,12194.828
-21.460194,-39.51009,12198.163
-21.466831,-39.533783,12198.964
-21.473421,-39.55656,12199.241
-21.48014,-39.579887,12198.3
-21.486855,-39.602947,12196.647
-21.493279,-39.62286,12196.986
-21.499619,-39.642216,12198.635
-21.506037,-39.66313,12199.895
-21.512705,-39.68652,12199.1455
-21.519554,-39.711063,12196.358
-21.526157,-39.73247,12194.867
-21.532558,-39.75162,12195.541
-21.538557,-39.767887,12199.929
-21.545124,-39.79077,12200.947
-21.55173,-39.814396,12200.389
-21.558462,-39.83796,12198.729
-21.56487,-39.857952,12199.217
-21.571217,-39.87751,12200.88
-21.577805,-39.90021,12200.666
-21.584791,-39.92659,12196.532
-21.591719,-39.95114,12191.653
-21.598263,-39.97102,12189.612
-21.604874,-39.99205,12187.581
-21.611582,-40.01488,12184.316
-21.617704,-40.032078,12185.431
-21.623703,-40.048542,12189.41
-21.629562,-40.065483,12195.333
-21.6362,-40.090668,12195.959
-21.643087,-40.117554,12192.993
-21.649916,-40.14177,12189.694
-21.656652,-40.164227,12186.796
-21.662971,-40.18297,12186.859
-21.669355,-40.203022,12187.222
-21.675356,-40.220432,12190.544
-21.68124,-40.23741,12196.082
-21.687578,-40.25979,12198.835
-21.694332,-40.28603,12197.429
-21.701008,-40.310055,12195.456
-21.707457,-40.330917,12195.0625
-21.713984,-40.352806,12194.131
-21.720644,-40.376293,12191.624
-21.727219,-40.398514,12189.29
-21.73357,-40.418236,12188.907
-21.739855,-40.437824,12189.574
-21.746466,-40.46123,12187.79
-21.752918,-40.483013,12186.428
-21.759037,-40.501232,12188.06
-21.765158,-40.520313,12190.5205
-21.771719,-40.544403,12189.66
-21.778465,-40.569553,12186.505
-21.785055,-40.591812,12184.168
-21.79162,-40.61359,12182.013
-21.797823,-40.63241,12182.441
-21.803757,-40.649307,12185.898
-21.809917,-40.669617,12188.479
-21.81621,-40.691856,12189.684
-21.82235,-40.71227,12191.881
-21.828669,-40.734238,12193.089
-21.835321,-40.759415,12191.096
-21.841377,-40.778214,12192.822
-21.847391,-40.796505,12196.299
-21.853523,-40.81731,12198.977
-21.859854,-40.840225,12199.866
-21.866255,-40.863213,12199.788
-21.872679,-40.885754,12199.273
-21.879002,-40.907078,12199.271
-21.885168,-40.927074,12200.483
-21.891277,-40.946884,12202.503
-21.897509,-40.968246,12203.86
-21.903759,-40.98982,12204.915
-21.909786,-41.009075,12207.83
-21.916035,-41.030663,12209.626
-21.92259,-41.055386,12208.412
-21.92914,-41.07924,12206.263
-21.935385,-41.099373,12206.24
-21.941696,-41.12044,12206.126
-21.948067,-41.14267,12205.196
-21.954247,-41.16298,12205.563
-21.960213,-41.1814,12208.144
-21.966272,-41.201515,12210.653
-21.972492,-41.223705,12211.828
-21.97875,-41.245846,12212.5625
-21.984987,-41.267315,12213.497
-21.991358,-41.28999,12213.328
-21.997961,-41.313576,12211.99
-22.00496,-41.33489,12212.639
-22.012533,-41.353832,12216.673
-22.021902,-41.384026,12212.735
-22.031416,-41.41079,12207.657
-22.040949,-41.432686,12204.296
-22.050459,-41.45278,12202.219
-22.060163,-41.47195,12201.638
-22.070646,-41.492546,12201.083
-22.081385,-41.51008,12203.313
-22.092867,-41.53096,12203.648
-22.104446,-41.550827,12203.854
-22.115948,-41.567932,12205.74
-22.127638,-41.586857,12206.396
-22.139185,-41.60702,12205.025
-22.15008,-41.6234,12205.471
-22.160736,-41.639664,12206.632
-22.171146,-41.655704,12208.791
-22.181482,-41.672222,12211.462
-22.192064,-41.691753,12212.258
-22.20302,-41.715065,12209.055
-22.213644,-41.736214,12205.174
-22.22372,-41.754154,12202.747
-22.233505,-41.771996,12200.846
-22.243097,-41.790325,12199.13
-22.252253,-41.8065,12199.681
-22.261139,-41.823368,12200.872
-22.269333,-41.83865,12204.13
-22.277134,-41.854897,12208.006
-22.284847,-41.87416,12210.442
-22.292503,-41.895218,12211.246
-22.299917,-41.915627,12211.882
-22.307291,-41.9369,12211.627
-22.314552,-41.957966,12211.237
-22.32174,-41.978832,12210.897
-22.328835,-41.99937,12210.919
-22.335794,-42.01896,12212.073
-22.342901,-42.040264,12212.468
-22.350006,-42.06194,12212.443
-22.356941,-42.08288,12212.609
-22.363716,-42.105064,12211.348
-22.370003,-42.12642,12209.806
-22.375618,-42.145157,12210.05
-22.380976,-42.165443,12209.816
-22.38612,-42.187252,12208.527
-22.390951,-42.20849,12207.4375
-22.395458,-42.22855,12207.576
-22.399645,-42.24768,12209.409
-22.404,-42.270287,12209.515
-22.40834,-42.294033,12208.347
-22.412508,-42.31623,12207.873
-22.416708,-42.339046,12207.099
-22.420715,-42.36069,12207.309
-22.424738,-42.382954,12207.505
-22.428667,-42.404945,12208.161
-22.432613,-42.42745,12208.749
-22.43657,-42.450386,12209.071
-22.440676,-42.47484,12208.01
-22.444607,-42.49746,12207.825
-22.448635,-42.52073,12207.292
-22.452515,-42.542816,12207.708
-22.45628,-42.563915,12209.447
-22.460264,-42.58758,12209.799
-22.464573,-42.61423,12207.142
-22.468801,-42.639187,12204.255
-22.472979,-42.662777,12201.844
-22.477152,-42.686394,12199.368
-22.481129,-42.708427,12198.154
-22.484861,-42.728638,12199.116
-22.48851,-42.748844,12201.474
-22.492218,-42.77039,12203.918
-22.49603,-42.793167,12205.817
-22.49991,-42.816425,12207.244
-22.50369,-42.838493,12209.448
-22.507633,-42.862053,12210.653
-22.5117,-42.88684,12210.379
-22.51564,-42.91004,12210.535
-22.519487,-42.932125,12211.557
-22.523407,-42.955208,12212.087
-22.527372,-42.97893,12211.935
-22.53152,-43.00417,12210.051
-22.535316,-43.025642,12210.447
-22.53928,-43.048664,12210.266
-22.543152,-43.07141,12210.317
-22.546574,-43.090008,12214.0625
-22.55012,-43.110466,12218.172
-22.5537,-43.13226,12222.047
-22.557426,-43.155464,12224.897
-22.56145,-43.181202,12225.109
-22.56561,-43.207436,12223.408
-22.569338,-43.22882,12224.332
-22.573305,-43.252438,12224.055
-22.576925,-43.2734,12225.769
-22.580683,-43.295578,12227.274
-22.584558,-43.319405,12227.562
-22.588484,-43.343502,12227.03
-22.592346,-43.366558,12226.787
-22.596483,-43.392048,12224.356
-22.600819,-43.418995,12219.492
-22.604874,-43.442574,12215.809
-22.608997,-43.46632,12211.986
-22.61297,-43.488903,12209.096
-22.616676,-43.509205,12208.562
-22.620543,-43.531723,12207.457
-22.624626,-43.556675,12204.484
-22.62843,-43.57855,12203.287
-22.632145,-43.599514,12203.459
-22.635672,-43.6197,12205.217
-22.63964,-43.644646,12203.996
-22.643013,-43.664085,12206.469
-22.646439,-43.68388,12210.125
-22.6499,-43.705395,12213.466
-22.653593,-43.729298,12215.01
-22.65739,-43.753735,12215.284
-22.66118,-43.77733,12215.371
-22.665154,-43.80169,12214.464
-22.669413,-43.827225,12212.041
-22.673796,-43.851635,12209.693
-22.67835,-43.87535,12207.649
-22.683414,-43.90201,12203.028
-22.688335,-43.92567,12199.545
-22.693098,-43.94638,12198.536
-22.697956,-43.967964,12197.935
-22.702326,-43.98538,12201.481
-22.707142,-44.007263,12203.452
-22.714315,-44.051,12186.539
-22.724436,-44.11698,12140.704
-22.73728,-44.196533,12064.668
-22.752867,-44.286537,11957.138
-22.769445,-44.37042,11830.073
-22.785847,-44.439434,11696.141
-22.801912,-44.497818,11559.959
-22.817825,-44.551594,11421.771
-22.834122,-44.606884,11278.506
-22.850622,-44.661747,11131.246
-22.86703,-44.71318,10983.018
-22.88397,-44.767365,10830.165
-22.900885,-44.819565,10675.557
-22.917948,-44.87092,10519.118
-22.934942,-44.920372,10362.117
-22.95255,-44.973835,10200.113
-22.9701,-45.02526,10036.375
-22.988186,-45.078934,9868.014
-23.00633,-45.131275,9697.034
-23.023497,-45.17364,9531.598
-23.037916,-45.19459,9386.386
-23.049786,-45.201664,9264.333
-23.061148,-45.215656,9152.54
-23.073347,-45.244934,9038.988
-23.08623,-45.28179,8922.398
-23.100155,-45.325283,8799.674
-23.114567,-45.369514,8672.816
-23.128424,-45.406376,8548.556
-23.142502,-45.444336,8422.772
-23.155964,-45.477936,8299.488
-23.167788,-45.499485,8187.4097
-23.17637,-45.499805,8100.319
-23.182856,-45.493465,8034.9014
-23.188816,-45.49499,7980.356
-23.194849,-45.505253,7930.9966
-23.202316,-45.53021,7876.484
-23.210024,-45.55614,7821.5176
-23.218245,-45.58392,7764.6147
-23.227373,-45.61741,7701.2134
-23.235435,-45.640156,7643.1157
-23.2424,-45.654335,7593.4746
-23.248812,-45.667942,7549.0396
-23.255116,-45.6844,7506.5713
-23.26109,-45.70034,7467.284
-23.266895,-45.716415,7430.589
-23.27223,-45.73038,7398.184
-23.27714,-45.74299,7370.145
-23.28427,-45.77495,7328.225
-23.293398,-45.81941,7268.879
-23.303322,-45.861874,7199.17
-23.313274,-45.897503,7124.857
-23.321991,-45.92017,7055.129
-23.330069,-45.93917,6987.94
-23.337961,-45.964016,6915.213
-23.345993,-46.00067,6826.779
-23.347343,-45.998554,6760.1904
-23.345423,-45.993626,6701.1934
-23.34027,-45.99031,6645.7256
-23.336227,-46.014965,6567.521
-23.330051,-46.02957,6486.263
-23.322828,-46.03604,6405.131
-23.316982,-46.051838,6312.321
-23.311441,-46.060345,6218.114
-23.306885,-46.06144,6126.4644
-23.302488,-46.047646,6047.9624
-23.299173,-46.031025,5978.218
-23.297173,-46.019012,5910.243
-23.29659,-46.013184,5838.9854
-23.296848,-46.0081,5765.529
-23.29738,-45.997997,5694.8726
-23.29843,-45.984867,5628.1304
-23.298565,-45.96016,5574.2236
-23.29828,-45.932373,5530.625
-23.298475,-45.909184,5491.829
-23.300278,-45.893036,5454.474
-23.304234,-45.881256,5419.049
-23.3124,-45.88597,5373.915
-23.323961,-45.89746,5320.629
-23.338846,-45.91516,5257.3027
-23.354843,-45.925636,5194.011
-23.370222,-45.923836,5139.7812
-23.386055,-45.928482,5084.105
-23.400368,-45.930355,5032.285
-23.407633,-45.893356,5018.607
-23.415543,-45.89033,4996.711
-23.421888,-45.89533,4973.477
-23.42794,-45.906723,4947.2593
-23.434,-45.923496,4916.693
-23.439821,-45.941013,4883.859
-23.445436,-45.958355,4849.713
-23.450098,-45.96866,4821.177
-23.454966,-45.9801,4795.1074
-23.460587,-45.994595,4769.5137
-23.467072,-46.01032,4744.4644
-23.474627,-46.028767,4717.587
-23.483292,-46.05074,4686.3022
-23.492374,-46.0709,4653.299
-23.501245,-46.085938,4622.2627
-23.51001,-46.09916,4592.628
-23.518969,-46.114006,4562.0337
-23.528414,-46.132164,4527.9644
-23.53748,-46.146,4495.6006
-23.546307,-46.157784,4465.082
-23.555061,-46.16994,4435.218
-23.56417,-46.18552,4402.976
-23.574585,-46.210354,4361.201
-23.586948,-46.246246,4303.4097
-23.5998,-46.278637,4237.177
-23.612392,-46.303295,4168.1963
-23.624174,-46.319965,4100.6914
