Latitude,Longitude,Altitude (m)
-49.701973,110.1703,11286.066
-49.67589,110.18256,11287.91
-49.649742,110.19486,11290.151
-49.62341,110.207214,11294.926
-49.597492,110.21946,11297.574
-49.571266,110.23177,11303.872
-49.54547,110.24371,11309.118
-49.519787,110.25563,11311.937
-49.49405,110.2675,11311.816
-49.46762,110.279396,11316.167
-49.441563,110.29103,11319.563
-49.415916,110.30267,11317.448
-49.389664,110.314384,11317.414
-49.36371,110.32588,11313.242
-49.337383,110.337585,11309.386
-49.311325,110.349106,11301.965
-49.28487,110.36079,11296.148
-49.25867,110.37231,11288.655
-49.231857,110.383934,11289.201
-49.20571,110.3952,11290.966
-49.179882,110.40648,11293.261
-49.153988,110.41766,11298.253
-49.12811,110.42877,11305.061
-49.102547,110.439804,11309.787
-49.07728,110.45084,11307.174
-49.05102,110.46216,11307.454
-49.024742,110.47339,11307.669
-48.99834,110.48474,11310.7295
-48.972206,110.495895,11315.55
-48.946743,110.5069,11314.573
-48.920643,110.518105,11316.577
-48.89494,110.52908,11314.283
-48.868805,110.5403,11313.289
-48.842537,110.55138,11315.556
-48.816677,110.56242,11316.513
-48.790756,110.5735,11319.404
-48.765038,110.58443,11321.819
-48.73916,110.59544,11326.218
-48.713634,110.60631,11328.151
-48.687866,110.61731,11330.668
-48.662304,110.62818,11330.006
-48.63621,110.63926,11332.875
-48.610508,110.6501,11333.906
-48.584488,110.66107,11338.788
-48.558968,110.671814,11341.272
-48.533394,110.6827,11342.557
-48.507927,110.69354,11340.248
-48.482033,110.70453,11338.791
-48.45592,110.71545,11340.915
-48.430294,110.726295,11341.153
-48.404522,110.73724,11343.504
-48.379005,110.74802,11344.812
-48.35342,110.75882,11346.601
-48.328053,110.76952,11345.67
-48.30229,110.780304,11347.078
-48.276646,110.79096,11349.161
-48.251144,110.801636,11351.1045
-48.225723,110.81229,11352.664
-48.200157,110.82293,11356.415
-48.174976,110.83345,11357.183
-48.149624,110.8441,11357.652
-48.12411,110.85469,11359.525
-48.098713,110.865265,11361.261
-48.07331,110.87581,11364.406
-48.048176,110.88625,11365.818
-48.022957,110.89675,11367.053
-47.997757,110.90722,11367.355
-47.972397,110.917725,11368.94
-47.947147,110.92813,11370.67
-47.921867,110.93855,11373.856
-47.896854,110.948875,11375.746
-47.871872,110.95922,11376.2
-47.84674,110.96958,11376.559
-47.821373,110.97997,11379.586
-47.79651,110.99026,11378.38
-47.771244,111.000725,11379.415
-47.746098,111.011024,11380.352
-47.72088,111.02137,11382.768
-47.69594,111.03161,11383.39
-47.670776,111.04193,11385.537
-47.645756,111.052155,11386.814
-47.620678,111.06243,11387.923
-47.59566,111.07267,11387.74
-47.57045,111.082985,11388.363
-47.545197,111.09326,11390.0625
-47.52012,111.1035,11391.207
-47.495003,111.11375,11392.857
-47.469868,111.12395,11395.379
-47.44493,111.1341,11395.944
-47.419895,111.144325,11395.459
-47.39457,111.154564,11397.247
-47.369423,111.16474,11398.45
-47.34433,111.174965,11399.202
-47.319077,111.18513,11401.847
-47.29411,111.19522,11402.076
-47.268867,111.20543,11403.866
-47.243645,111.215515,11406.792
-47.21863,111.22559,11408.102
-47.19354,111.2357,11409.034
-47.168285,111.24582,11410.977
-47.14311,111.25591,11412.225
-47.117905,111.26605,11413.091
-47.092648,111.276184,11414.158
-47.06743,111.28632,11414.084
-47.042095,111.296524,11413.867
-47.016552,111.306725,11416.177
-46.99098,111.31685,11422.593
-46.965916,111.32681,11427.725
-46.94094,111.336815,11431.118
-46.915836,111.346825,11432.402
-46.890457,111.35691,11433.044
-46.864704,111.36708,11436.876
-46.839455,111.37712,11436.891
-46.813885,111.38732,11437.994
-46.788403,111.397385,11437.917
-46.763004,111.40752,11434.405
-46.7371,111.41778,11433.8
-46.711193,111.42792,11436.241
-46.68556,111.43804,11440.168
-46.660233,111.44813,11443.409
-46.635098,111.45816,11443.077
-46.60942,111.468285,11445.585
-46.583954,111.478264,11446.006
-46.558483,111.48838,11443.993
-46.53251,111.49851,11446.632
-46.50727,111.50847,11442.157
-46.48118,111.518745,11443.876
-46.45537,111.52867,11447.8955
-46.4299,111.53866,11451.627
-46.40478,111.54856,11451.494
-46.379044,111.55858,11455.5625
-46.353672,111.568405,11456.683
-46.32803,111.578445,11459.193
-46.302383,111.58837,11463.383
-46.276943,111.598305,11466.662
-46.251644,111.60824,11467.277
-46.226036,111.6182,11469.33
-46.200504,111.62807,11470.536
-46.174835,111.63802,11473.308
-46.149456,111.64787,11473.909
-46.12397,111.65779,11473.9
-46.098335,111.66766,11474.845
-46.072857,111.677505,11473.853
-46.047115,111.687416,11475.522
-46.0215,111.697174,11478.639
-45.996334,111.70691,11477.331
-45.970745,111.7168,11477.871
-45.945072,111.72656,11480.507
-45.919697,111.736305,11481.381
-45.894295,111.746086,11481.861
-45.868668,111.75587,11484.997
-45.84319,111.76554,11489.079
-45.81803,111.77523,11489.763
-45.792465,111.785,11493.797
-45.76723,111.7946,11494.432
-45.741646,111.80438,11497.371
-45.716293,111.81402,11498.602
-45.690777,111.82377,11500.474
-45.665207,111.83345,11504.312
-45.63992,111.84309,11505.286
-45.614407,111.85283,11507.294
-45.58882,111.862495,11510.738
-45.56336,111.872154,11514.0
-45.537994,111.8818,11515.926
-45.512505,111.891464,11517.792
-45.487076,111.90114,11517.424
-45.46166,111.91086,11512.657
-45.43579,111.92069,11508.742
-45.40967,111.93046,11509.074
-45.384033,111.940125,11508.869
-45.358482,111.94981,11510.236
-45.333263,111.959366,11508.726
-45.30781,111.968994,11507.302
-45.2822,111.978584,11507.875
-45.256634,111.98814,11510.708
-45.231266,111.997604,11515.446
-45.20606,112.00698,11521.859
-45.18126,112.01627,11524.017
-45.15618,112.025696,11524.385
-45.130974,112.03513,11520.851
-45.10501,112.044754,11523.507
-45.07967,112.05415,11523.023
-45.053944,112.06376,11529.215
-45.02907,112.073006,11529.762
-45.003857,112.0825,11531.002
-44.978786,112.091805,11527.796
-44.953125,112.10141,11527.899
-44.927723,112.11081,11527.142
-44.902554,112.12029,11522.679
-44.876972,112.12979,11521.687
-44.85141,112.13914,11524.695
-44.82627,112.1484,11528.635
-44.801613,112.15758,11528.363
-44.77666,112.16685,11527.439
-44.75126,112.17616,11530.265
-44.726006,112.186134,11531.546
-44.70069,112.196915,11534.671
-44.67573,112.207855,11536.385
-44.650936,112.218994,11534.935
-44.625652,112.2302,11538.884
-44.600845,112.24119,11541.526
-44.576145,112.25228,11542.448
-44.551495,112.263336,11539.4375
-44.525932,112.27448,11546.35
-44.501274,112.28526,11549.054
-44.476604,112.29629,11550.007
-44.451694,112.30713,11552.092
-44.426556,112.317986,11557.075
-44.401836,112.32875,11559.347
-44.37736,112.33959,11552.976
-44.352894,112.35068,11528.107
-44.32658,112.36235,11502.865
-44.299633,112.37393,11480.089
-44.273212,112.38557,11454.15
-44.24693,112.3972,11429.985
-44.220947,112.408615,11407.516
-44.195137,112.4199,11389.53
-44.170193,112.43091,11366.27
-44.144882,112.44205,11345.872
-44.119556,112.45299,11328.539
-44.094532,112.463875,11310.397
-44.06956,112.47475,11292.885
-44.044735,112.485565,11272.291
-44.01946,112.496544,11253.949
-43.99363,112.507416,11248.161
-43.96925,112.51787,11234.911
-43.94491,112.52865,11214.479
-43.91965,112.53947,11195.036
-43.89398,112.55028,11177.331
-43.868675,112.5611,11155.048
-43.843338,112.57204,11129.208
-43.81767,112.58301,11102.621
-43.791725,112.59402,11079.086
-43.765984,112.60495,11057.474
-43.74048,112.615776,11039.612
-43.71562,112.62639,11018.075
-43.69053,112.637115,10997.116
-43.66516,112.64776,10980.233
-43.63991,112.658295,10965.406
-43.614956,112.66878,10949.732
-43.58899,112.679245,10951.958
-43.564293,112.68899,10956.322
-43.540394,112.69885,10956.691
-43.51606,112.708725,10959.041
-43.49132,112.71854,10964.11
-43.46679,112.7284,10966.172
-43.442097,112.73843,10965.476
-43.41692,112.748566,10966.021
-43.39152,112.75872,10969.298
-43.366253,112.768875,10974.623
-43.34116,112.77891,10981.967
-43.316586,112.788864,10983.266
-43.29172,112.79906,10980.457
-43.2658,112.809364,10987.52
-43.240734,112.81932,10990.836
-43.215687,112.82956,10993.738
-43.190712,112.83968,10994.292
-43.165497,112.84994,10993.788
-43.14025,112.86021,10991.206
-43.114784,112.87058,10989.198
-43.08923,112.88092,10989.816
-43.06374,112.89121,10995.092
-43.039165,112.90132,10992.475
-43.01413,112.91172,10989.577
-42.988647,112.92195,10990.778
-42.963425,112.932175,10991.435
-42.938232,112.94245,10994.385
-42.91306,112.9526,11001.416
-42.888638,112.962616,11001.216
-42.863503,112.97291,11005.405
-42.838768,112.9829,11003.777
-42.81369,112.99328,10999.606
-42.788013,113.00364,11001.237
-42.762836,113.013794,11000.592
-42.737305,113.02411,11007.897
-42.71255,113.034004,11013.693
-42.688038,113.044075,11015.456
-42.66344,113.05418,11011.5
-42.638042,113.06449,11009.486
-42.612324,113.07473,11013.167
-42.58721,113.08483,11016.649
-42.562515,113.09491,11016.625
-42.537647,113.10501,11015.297
-42.512463,113.11514,11014.864
-42.487175,113.12526,11017.098
-42.462143,113.13529,11019.793
-42.43738,113.14532,11020.576
-42.412457,113.15535,11021.772
-42.387783,113.16531,11016.794
-42.362415,113.17556,11014.936
-42.336983,113.185616,11016.519
-42.31178,113.19564,11021.688
-42.287285,113.20546,11022.163
-42.262238,113.21544,11028.537
-42.23779,113.225136,11028.69
-42.21289,113.23524,11028.926
-42.18784,113.245186,11029.961
-42.16281,113.25515,11030.413
-42.13785,113.26513,11029.734
-42.11273,113.27511,11030.717
-42.0877,113.285,11032.292
-42.062794,113.29488,11033.612
-42.03806,113.30475,11031.795
-42.01281,113.31472,11035.011
-41.98802,113.32449,11035.418
-41.96316,113.334404,11035.223
-41.938213,113.34424,11034.382
-41.913082,113.354164,11034.714
-41.888096,113.36403,11033.766
-41.863033,113.37398,11032.411
-41.8378,113.38391,11034.186
-41.81253,113.39371,11042.366
-41.788094,113.4033,11046.17
-41.763496,113.41308,11049.511
-41.73866,113.422745,11053.754
-41.7139,113.43245,11054.49
-41.688744,113.442276,11057.985
-41.66373,113.45198,11061.299
-41.63899,113.46176,11059.412
-41.61357,113.471695,11063.688
-41.588654,113.481346,11064.396
-41.563713,113.49124,11062.602
-41.538525,113.50109,11060.835
-41.513367,113.51097,11055.547
-41.487732,113.521,11054.765
-41.462296,113.53085,11057.076
-41.437187,113.5406,11062.096
-41.4127,113.55021,11061.801
-41.387707,113.55997,11063.942
-41.36285,113.569565,11062.807
-41.337753,113.5794,11060.353
-41.312305,113.58921,11062.485
-41.287373,113.59887,11059.974
-41.26226,113.60874,11056.483
-41.236702,113.61852,11059.732
-41.211567,113.62811,11064.385
-41.187042,113.6377,11062.992
-41.162018,113.647446,11063.307
-41.136925,113.65706,11062.792
-41.111855,113.66681,11060.054
-41.08653,113.676575,11059.986
-41.06138,113.68617,11060.243
-41.036335,113.69581,11060.335
-41.011173,113.70542,11064.596
-40.986378,113.71484,11068.153
-40.961704,113.724365,11069.96
-40.936886,113.733894,11071.306
-40.911804,113.743385,11076.087
-40.88703,113.75278,11079.018
-40.86248,113.76227,11074.582
-40.837074,113.77196,11075.1875
-40.8119,113.781456,11073.806
-40.786716,113.79115,11072.332
-40.761494,113.80073,11073.72
-40.73656,113.81023,11072.95
-40.71154,113.81979,11073.337
-40.68658,113.82924,11073.462
-40.661343,113.83876,11079.729
-40.636787,113.848045,11081.749
-40.612278,113.85749,11078.091
-40.58689,113.867035,11080.889
-40.56189,113.87636,11080.898
-40.536705,113.88592,11083.997
-40.511856,113.895256,11085.437
-40.487038,113.90475,11082.371
-40.461784,113.91435,11079.98
-40.43621,113.92393,11082.988
-40.411144,113.93331,11085.732
-40.3864,113.94274,11085.359
-40.3613,113.952194,11087.626
-40.33629,113.96154,11089.298
-40.311428,113.97098,11086.75
-40.28631,113.98052,11082.305
-40.260433,113.99007,11089.673
-40.235607,113.99923,11094.148
-40.21101,114.008575,11097.179
-40.18638,114.017784,11097.08
-40.161324,114.02719,11096.136
-40.136036,114.03662,11095.955
-40.11073,114.04605,11097.412
-40.08563,114.055405,11098.515
-40.060543,114.06474,11100.596
-40.035995,114.07411,11088.863
-40.01073,114.08412,11063.948
-39.983746,114.094475,11044.24
-39.95692,114.10473,11019.488
-39.929977,114.11532,10994.705
-39.90322,114.125725,10968.961
-39.876392,114.13616,10946.125
-39.849895,114.14639,10925.101
-39.823875,114.15653,10900.925
-39.798004,114.16669,10871.116
-39.77141,114.17693,10846.345
-39.745087,114.18702,10821.747
-39.718838,114.19781,10799.487
-39.693134,114.20897,10773.958
-39.66741,114.22043,10748.956
-39.64186,114.23185,10721.844
-39.616264,114.243385,10693.787
-39.590607,114.254875,10665.554
-39.564873,114.26631,10640.115
-39.539387,114.277565,10615.929
-39.514244,114.288704,10589.502
-39.489017,114.29984,10561.981
-39.463753,114.31095,10530.715
-39.437977,114.32216,10502.518
-39.41219,114.333176,10477.595
-39.386765,114.34406,10452.59
-39.361317,114.35491,10430.528
-39.336075,114.365555,10408.264
-39.310917,114.3762,10384.207
-39.285545,114.386856,10360.255
-39.25993,114.397514,10338.295
-39.23461,114.408104,10313.172
-39.20907,114.41883,10288.704
-39.183372,114.429474,10267.236
-39.15791,114.44002,10245.391
-39.132584,114.45063,10222.656
-39.107132,114.46121,10201.026
-39.081993,114.47169,10174.063
-39.056473,114.482414,10146.041
-39.030567,114.49315,10120.614
-39.00481,114.50383,10095.885
-38.97918,114.51447,10073.583
-38.953884,114.52493,10050.876
-38.9286,114.53542,10026.707
-38.90293,114.54602,10005.171
-38.877434,114.55657,9981.295
-38.851852,114.567314,9955.737
-38.826244,114.57807,9926.746
-38.800106,114.588974,9901.478
-38.77421,114.59972,9875.356
-38.747093,114.61053,9873.528
-38.721508,114.6201,9881.422
-38.69768,114.62946,9885.07
-38.67384,114.638855,9888.271
-38.649593,114.648224,9889.254
-38.624767,114.657845,9890.128
-38.59984,114.66757,9888.351
-38.57444,114.67751,9888.817
-38.549103,114.68739,9889.459
-38.523766,114.69737,9891.148
-38.498314,114.70731,9897.465
-38.473446,114.71706,9900.692
-38.44852,114.72697,9903.519
-38.42333,114.736885,9908.842
-38.398266,114.74673,9914.933
-38.373863,114.75653,9911.731
-38.348675,114.7667,9909.916
-38.323116,114.77676,9911.287
-38.297813,114.78678,9913.797
-38.272884,114.79672,9915.668
-38.247993,114.8067,9917.687
-38.22301,114.81666,9921.085
-38.198486,114.82656,9918.074
-38.17347,114.83674,9915.151
-38.14827,114.84688,9911.784
-38.122917,114.857124,9909.995
-38.097855,114.86729,9906.677
-38.072613,114.87751,9906.723
-38.04762,114.88752,9907.225
-38.022873,114.89759,9906.194
-37.997925,114.90767,9907.575
-37.973248,114.91761,9906.494
-37.94844,114.92764,9906.04
-37.923805,114.93759,9902.465
-37.89875,114.94775,9901.798
-37.873817,114.95769,9902.398
-37.84909,114.96763,9903.0
-37.8243,114.97753,9906.639
-37.799683,114.98726,9912.252
-37.7757,114.99686,9910.358
-37.75121,115.00676,9908.025
-37.726357,115.01663,9906.739
-37.701424,115.02653,9907.752
-37.676888,115.03634,9906.831
-37.652008,115.04621,9912.616
-37.62756,115.05577,9919.737
-37.60348,115.065315,9926.037
-37.579784,115.07482,9924.366
-37.555233,115.08467,9924.335
-37.53055,115.09445,9922.956
-37.50574,115.10439,9922.298
-37.48101,115.11421,9922.835
-37.45625,115.123955,9926.6455
-37.432014,115.133545,9926.777
-37.40769,115.14329,9925.382
-37.383244,115.15303,9921.572
-37.358505,115.16289,9918.495
-37.333492,115.17272,9920.956
-37.30903,115.18231,9923.164
-37.284786,115.19194,9925.662
-37.260876,115.20144,9922.409
-37.236374,115.211205,9920.747
-37.211823,115.22084,9918.782
-37.187305,115.23056,9916.329
-37.162853,115.24027,9913.538
-37.137997,115.25,9918.653
-37.114265,115.25933,9914.382
-37.09005,115.26908,9910.131
-37.065205,115.27872,9912.066
-37.04091,115.28816,9911.215
-37.016644,115.29775,9910.809
-36.992268,115.30725,9912.29
-36.96818,115.31671,9909.755
-36.94384,115.32634,9907.055
-36.919098,115.33589,9909.682
-36.894615,115.345276,9914.026
-36.8705,115.35463,9917.975
-36.84681,115.36398,9913.402
-36.82227,115.37369,9910.783
-36.797462,115.38323,9910.449
-36.772587,115.39281,9915.413
-36.747944,115.402145,9927.87
-36.72457,115.41108,9931.514
-36.70077,115.42046,9933.155
-36.67649,115.429855,9934.255
-36.65216,115.43933,9932.112
-36.62749,115.44894,9931.419
-36.603138,115.45837,9926.317
-36.578537,115.468056,9920.211
-36.553432,115.477745,9921.489
-36.528984,115.48713,9921.827
-36.505104,115.49658,9915.199
-36.48038,115.50623,9915.66
-36.45596,115.515495,9915.849
-36.432007,115.5249,9910.1
-36.40767,115.53444,9904.513
-36.38288,115.543945,9903.589
-36.35849,115.55329,9902.472
-36.33428,115.562645,9902.135
-36.309986,115.57187,9905.897
-36.286102,115.58097,9907.475
-36.262154,115.59017,9910.03
-36.23812,115.5993,9913.462
-36.214214,115.60841,9915.084
-36.19024,115.6176,9915.151
-36.166134,115.62685,9913.75
-36.141964,115.636154,9909.316
-36.117386,115.64556,9907.385
-36.092846,115.65487,9907.451
-36.068798,115.66412,9902.66
-36.044346,115.673584,9900.996
-36.019806,115.68283,9903.637
-35.995884,115.69193,9901.675
-35.971523,115.70123,9905.307
-35.947536,115.71019,9906.707
-35.923542,115.71936,9906.603
-35.899483,115.72851,9904.576
-35.875114,115.73778,9903.487
-35.850903,115.747,9899.583
-35.826626,115.75634,9893.576
-35.801918,115.76576,9891.484
-35.777504,115.77494,9889.129
-35.753155,115.78418,9887.815
-35.728725,115.79335,9890.958
-35.704536,115.80233,9896.98
-35.680927,115.81118,9898.596
-35.657104,115.820206,9898.483
-35.632793,115.82924,9902.128
-35.608868,115.838165,9900.826
-35.584457,115.84737,9903.963
-35.56026,115.856316,9907.846
-35.536182,115.865295,9912.62
-35.512436,115.87417,9913.842
-35.488308,115.88322,9917.58
-35.464252,115.892105,9921.647
-35.440186,115.901054,9928.304
-35.416706,115.909836,9928.459
-35.392845,115.91887,9927.597
-35.368687,115.92786,9927.998
-35.344677,115.93684,9926.682
-35.320415,115.945915,9931.116
-35.29697,115.95467,9928.125
-35.272957,115.96381,9930.424
-35.249233,115.97255,9931.79
-35.225666,115.981415,9930.505
-35.201756,115.99031,9933.384
-35.17818,115.99904,9933.54
-35.154415,116.00793,9936.069
-35.130924,116.016655,9935.222
-35.10705,116.02557,9937.81
-35.083412,116.03427,9938.855
-35.05981,116.04314,9937.868
-35.035946,116.05202,9939.173
-35.012352,116.06082,9935.303
-34.988327,116.069855,9933.492
-34.964207,116.07875,9934.38
-34.940056,116.08763,9942.104
-34.916866,116.09617,9944.349
-34.893585,116.10497,9943.386
-34.87001,116.113396,9938.983
-34.845814,116.12058,9939.037
-34.821495,116.12607,9944.911
-34.798347,116.12995,9933.507
-34.773293,116.132965,9938.695
-34.74896,116.134094,9938.356
-34.724533,116.13539,9932.293
-34.69945,116.13644,9926.732
-34.67387,116.1373,9924.351
-34.648056,116.13797,9931.326
-34.623135,116.13824,9937.29
-34.59828,116.13858,9947.083
-34.574066,116.13857,9947.037
-34.5489,116.13914,9948.951
-34.523697,116.13956,9945.751
-34.49781,116.14034,9948.313
-34.47233,116.140816,9950.445
-34.44702,116.1414,9951.728
-34.421555,116.14192,9957.61
-34.396538,116.1423,9960.41
-34.371513,116.142876,9960.175
-34.345997,116.14353,9963.909
-34.3207,116.144066,9965.053
-34.29529,116.14478,9966.835
-34.26994,116.14535,9967.638
-34.244476,116.146034,9967.815
-34.218945,116.146774,9967.095
-34.1931,116.147606,9970.998
-34.167706,116.14819,9972.47
-34.142338,116.14891,9971.933
-34.11671,116.14969,9972.244
-34.091022,116.15043,9973.083
-34.065533,116.15116,9969.903
-34.03966,116.15204,9970.162
-34.014034,116.15271,9968.335
-33.988438,116.15354,9965.104
-33.962704,116.1544,9962.865
-33.936646,116.155235,9970.969
-33.911606,116.15565,9976.776
-33.88694,116.156235,9978.407
-33.86183,116.156845,9983.116
-33.836823,116.15735,9984.51
-33.81168,116.1581,9984.422
-33.78633,116.15884,9984.838
-33.76104,116.15959,9983.671
-33.73557,116.160385,9986.369
-33.710674,116.16076,9983.186
-33.686455,116.16002,9963.688
-33.661274,116.15746,9948.562
-33.63623,116.15212,9940.673
-33.611927,116.14546,9932.069
-33.587654,116.13846,9927.6
-33.563297,116.131195,9931.167
-33.539185,116.12373,9944.019
-33.5161,116.11597,9953.571
-33.492886,116.10838,9965.887
-33.469845,116.10068,9971.341
-33.44708,116.09343,9947.157
-33.42241,116.08756,9897.691
-33.396458,116.082825,9800.036
-33.367596,116.08031,9669.152
-33.335365,116.07905,9543.697
-33.303642,116.07754,9417.076
-33.27344,116.076126,9291.467
-33.244343,116.07424,9175.493
-33.21717,116.07147,9056.8125
-33.190865,116.06862,8937.377
