Latitude,Longitude,Altitude (m)
-38.23762578433997,132.42948204151887,12074.948278427124
-38.226091147213104,132.42627716951785,12075.286920547485
-38.21455651008624,132.42308971529945,12075.619749069214
-38.20301811452434,132.4198325899506,12075.9540309906
-38.191475960527406,132.41666255351484,12076.290493011475
-38.179967632445795,132.41345768151382,12076.624774932861
-38.168429236883895,132.4102528095128,12076.960510253906
-38.15688708288696,132.4069260130335,12077.299879074097
-38.145367479500244,132.40382564772818,12077.630527496338
-38.13384787611352,132.4005336868141,12077.967716217041
-38.12230948055162,132.3973636503783,12078.305631637573
-38.1107786018598,132.39421103172515,12078.636280059814
-38.09925524003804,132.39091907081107,12078.977828979492
-38.08772436134622,132.38773161659267,12079.312110900879
-38.07619348265439,132.38447449124382,12079.65075302124
-38.06467012083263,132.38139154372112,12079.987941741943
-38.053143000575844,132.3781692539375,12080.32222366333
-38.04161963875409,132.37501663528434,12080.657958984375
-38.03008876006226,132.37181176328332,12080.994421005249
-38.018565398240504,132.36862430906493,12081.329429626465
-38.00704579485379,132.36547169041177,12081.666618347168
-37.99552619146707,132.36217972949768,12082.006713867188
-37.984006588080355,132.35913161754019,12082.339542388916
-37.972483226258596,132.3558222388435,12082.678911209106
-37.96097113974196,132.35268703797294,12083.018280029297
-37.949428985745016,132.34953441931978,12083.354015350342
-37.937913140793334,132.34639921844922,12083.688297271729
-37.92639729584165,132.34322918201346,12084.028392791748
-37.91488896776005,132.34002431001244,12084.36703491211
-37.90335808906822,132.3369239447071,12084.701316833496
-37.89184224411654,132.33375390827135,12085.040685653687
-37.88033391603493,132.3305142007051,12085.380781173706
-37.86879552047303,132.327448670965,12085.715789794922
-37.85729095082646,132.32431347009444,12086.052251815796
-37.845797656485,132.32112601587605,12086.38871383667
-37.83426301935813,132.3179733972229,12086.72808265686
-37.822739657536374,132.3148904497002,12087.066724777222
-37.811242604759876,132.3117204132644,12087.403186798096
-37.79973051824323,132.3085503768286,12087.744735717773
-37.78821843172659,132.3054500115233,12088.081197738647
-37.77670258677491,132.30229739287012,12088.41838645935
-37.765182983388186,132.29924928091265,12088.757028579712
-37.75368217217665,132.29606182669426,12089.097124099731
-37.74217384409504,132.29297887917156,12089.435039520264
-37.7306617575784,132.28980884273577,12089.775135040283
-37.71914967106176,132.28674331299567,12090.110143661499
-37.707641342980146,132.28367778325557,12090.451692581177
-37.69614429020365,132.28042065790672,12090.78888130188
-37.684632203687,132.27737254594925,12091.130430221558
-37.67312763404043,132.27432443399175,12091.46761894226
-37.66162306439386,132.271154397556,12091.806261062622
-37.65010346100714,132.26819337451155,12092.145629882812
-37.63860264979561,132.26497108472793,12092.48790550232
-37.6271055970191,132.26194039055306,12092.824367523193
-37.6155972689375,132.258874860813,12093.164463043213
-37.60409645772596,132.25566998881197,12093.503831863403
-37.59259940494946,132.2526392946371,12093.841747283936
-37.581087318432814,132.24953892933178,12094.181116104126
-37.569605299396464,132.24642114624385,12094.52557182312
-37.55809321287982,132.24333819872115,12094.862033843994
-37.546592401668285,132.24025525119842,12095.201402664185
-37.53509534889179,132.2372768103714,12095.542951583862
-37.52359077924521,132.23410677393562,12095.883773803711
-37.512112518643896,132.23109349754336,12096.22386932373
-37.5006154658674,132.22808022115112,12096.565418243408
-37.48910713778579,132.2249798558458,12096.90333366394
-37.47761760187936,132.22196657945355,12097.24342918396
-37.466131824407974,132.21881396080036,12097.58352470398
-37.45463101319644,132.21581810219072,12097.925073623657
-37.44313771885498,132.21278740801586,12098.265895843506
-37.43164066607847,132.209756713841,12098.607444763184
-37.42016616391219,132.2066911841009,12098.948993682861
-37.408661594265624,132.20364307214342,12099.286909103394
-37.397164541489126,132.20061237796855,12099.626277923584
-37.3856750055827,132.1975991015763,12099.970006942749
-37.374181711241235,132.19455098961882,12100.310829162598
-37.36270345063992,132.19155513100918,12100.653104782104
-37.3512251900386,132.18847218348648,12100.991746902466
-37.339724378827064,132.18542407152898,12101.33620262146
-37.32823484292064,132.18246304848458,12101.67557144165
-37.31675658231932,132.17939751874448,12102.01494026184
-37.30527456328297,132.17641907791747,12102.361576080322
-37.293792544246614,132.1734232193078,12102.704578399658
-37.28230676677523,132.17042736069817,12103.041040420532
-37.27082474773887,132.1673792487407,12103.384042739868
-37.25935024557259,132.1644182256963,12103.724864959717
-37.247864468101206,132.16142236708666,12104.068593978882
-37.23637869062981,132.1583916729118,12104.41014289856
-37.224896671593456,132.15543064986738,12104.753145217896
-37.21341841099214,132.15243479125775,12105.094694137573
-37.201940150390826,132.1494389326481,12105.43696975708
-37.190488198834764,132.1465127451689,12105.782152175903
-37.178998662928336,132.14349946877667,12106.122974395752
-37.16752791919709,132.14045135681917,12106.463069915771
-37.15604590016074,132.1375077515574,12106.806072235107
-37.1445751564295,132.13461639964342,12107.149801254272
-37.13309689582818,132.13162054103378,12107.490623474121
-37.12162615209694,132.12855501129368,12107.833625793457
-37.11015540836569,132.1256288238145,12108.17880821228
-37.09867714776438,132.12268521855273,12108.521083831787
-37.08720640403313,132.11975903107353,12108.864812850952
-37.07573941873692,132.1167631724639,12109.20636177063
-37.06426115813561,132.11378473163688,12109.549364089966
-37.05281296501458,132.11096305085337,12109.896726608276
-37.04134973815341,132.10794977446113,12110.236822128296
-37.029882752857205,132.10504100476456,12110.58200454712
-37.01840073382085,132.10204514615492,12110.922100067139
-37.00694502382975,132.09910154089312,12111.268009185791
-36.99547803853354,132.09617535341394,12111.611738204956
-36.98401105323734,132.0933014192826,12111.954740524292
-36.97256286011631,132.09032297845556,12112.297742843628
-36.96108835795003,132.08744904432425,12112.641471862793
-36.94961385578375,132.0844531857146,12112.987380981445
-36.93817693796783,132.08154441601803,12113.33111000061
-36.92670995267163,132.0786878996693,12113.677019119263
-36.915239208940385,132.07570945884228,12114.023654937744
-36.90378349894928,132.07276585358048,12114.36665725708
-36.89233154739322,132.06990933723176,12114.708932876587
-36.88087959583716,132.06705282088302,12115.056295394897
-36.86941636897599,132.0642137223169,12115.399297714233
-36.857975692725034,132.06132237040296,12115.743753433228
-36.8465162242989,132.05836134735856,12116.088209152222
-36.835060514307806,132.05550483100984,12116.433391571045
-36.823608562751744,132.05257864353064,12116.777847290039
-36.81216036963072,132.04965245605146,12117.125936508179
-36.80071217650969,132.04683077526798,12117.468212127686
-36.789263983388665,132.04399167670186,12117.81194114685
-36.77781579026764,132.0410654892227,12118.157850265503
-36.76636383871158,132.03824380843918,12118.504486083984
-36.75491564559056,132.03526536761217,12118.84748840332
-36.7434749693396,132.03251335795912,12119.193397521973
-36.73202301778354,132.02958717047994,12119.540760040283
-36.72057482466251,132.02669581856597,12119.886669158936
-36.709141665281635,132.02385671999986,12120.231851577759
-36.69771226433579,132.02110471034683,12120.577760696411
-36.686256554344695,132.01817852286766,12120.92657661438
-36.67481963652878,132.01539167764938,12121.269578933716
-36.66338271871286,132.01250032573543,12121.614761352539
-36.651938284026876,132.00967864495192,12121.964303970337
-36.640493849340885,132.00690921751627,12122.308759689331
-36.62906444839504,132.0039656122545,12122.65684890747
-36.6176350474492,132.0011613492536,12122.99767112732
-36.60620188806832,131.99840933960056,12123.348667144775
-36.59475369494729,131.99548315212138,12123.693849563599
-36.583328052436485,131.9926963069031,12124.039758682251
-36.571909926795755,131.98989204390222,12124.386394500732
-36.56045421680466,131.9870355275535,12124.73593711853
-36.54902857429385,131.98428351790045,12125.082572937012
-36.537599173348006,131.98146183711697,12125.427755355835
-36.52617728927223,131.97869240968132,12125.773664474487
-36.51474037145632,131.97592298224563,12126.123933792114
-36.503310970510476,131.9730316303317,12126.469842910767
-36.49189660330478,131.97027962067867,12126.818658828735
-36.48045968548886,131.96747535767778,12127.164567947388
-36.46902652610798,131.96465367689427,12127.514837265015
-36.457612158902286,131.96188424945862,12127.861473083496
-36.44619779169659,131.95918449315343,12128.211015701294
-36.434757115445635,131.9563279768047,12128.559104919434
-36.423338989804904,131.95364563828213,12128.902833938599
-36.411920864164166,131.950806539716,12129.253829956055
-36.400510255393506,131.94801969449773,12129.601919174194
-36.38907333757759,131.94526768484468,12129.947828292847
-36.37766272880693,131.94248083962643,12130.296644210815
-36.36626339534138,131.93978108332124,12130.643280029297
-36.35484151126561,131.93695940253772,12130.993549346924
-36.343427144059916,131.93429448179776,12131.340911865234
-36.33201653528925,131.93147280101425,12131.690454483032
-36.32059465121348,131.9287904624917,12132.037090301514
-36.309176525572745,131.92609070618647,12132.38808631897
-36.2977771921072,131.92321677205516,12132.736902236938
-36.28636658333654,131.9205692690978,12133.086444854736
-36.27495221613084,131.91774758831428,12133.434534072876
-36.26354536579522,131.91501299644386,12133.784803390503
-36.25213851545959,131.9123480757039,12134.132165908813
-36.240735423559,131.90963090161608,12134.480981826782
-36.22932481478834,131.90696598087612,12134.831977844238
-36.21792172288775,131.90417913565784,12135.180793762207
-36.206499838811986,131.90161872161357,12135.530336380005
-36.19513433126176,131.89886671196052,12135.879878997803
-36.183716205621025,131.89609728452487,12136.227968215942
-36.17231687215548,131.89339752821968,12136.57823753357
-36.16092505556,131.8907326074797,12136.927053451538
-36.149533238964516,131.88805026895713,12137.280229568481
-36.138122630193855,131.88538534821714,12137.630498886108
-36.12673081359838,131.88268559191195,12137.97640800476
-36.11532772169779,131.8799161644763,12138.328857421875
-36.103947180407424,131.87726866151894,12138.676946640015
-36.092536571636764,131.87456890521375,12139.030122756958
-36.08115978878143,131.87195623782162,12139.378211975098
-36.0697529384458,131.86918681038597,12139.730661392212
-36.05837239715544,131.86660897855907,12140.080930709839
-36.046984338994996,131.8639614756017,12140.430473327637
-36.03559252239951,131.8612443015139,12140.782196044922
-36.024200705804034,131.85852712742607,12141.133192062378
-36.012823922948705,131.85593187781657,12141.482734680176
-36.00144714009337,131.85330179264184,12141.834457397461
-35.990066598803004,131.8506717074671,12142.184726715088
-35.97867478220752,131.84805904007496,12142.535722732544
-35.96728296561204,131.84546379046546,12142.888172149658
-35.95590242432167,131.84274661637764,12143.237714767456
-35.94452939990138,131.8401513667681,12143.59016418457
-35.93314510017597,131.83759095272384,12143.940433502197
-35.921787109495824,131.8348389430708,12144.292882919312
-35.910391534465305,131.83231336459176,12144.64169883728
-35.899014751609975,131.82963102606917,12144.997055053711
-35.88764172718968,131.8269835231118,12145.348051071167
-35.876272461204415,131.82438827350228,12145.703407287598
-35.86489943678412,131.82179302389278,12146.052223205566
-35.85353017079886,131.81928486319634,12146.40539932251
-35.84215714637857,131.8166547780216,12146.754215240479
-35.83078412195827,131.81404211062946,12147.108118057251
-35.81943364814819,131.81144686101996,12147.45620727539
-35.80805686529286,131.8087993580626,12147.809383392334
-35.79669135774264,131.80625636180093,12148.164739608765
-35.78532209175738,131.8036611121914,12148.51646232605
-35.773971617947296,131.80110069814714,12148.868185043335
-35.762598593527,131.7985054485376,12149.224267959595
-35.75121805223663,131.7959276167107,12149.57599067688
-35.739875095296625,131.79341945601428,12149.927713394165
-35.728520863051514,131.79082420640478,12150.280889511108
-35.71714408019618,131.78826379236048,12150.637699127197
-35.70579736482114,131.78572079609881,12150.989421844482
-35.69443937414099,131.78317779983715,12151.341144561768
-35.683088900330915,131.7805302968798,12151.693593978882
-35.67173090965076,131.7780918073138,12152.048223495483
-35.66037291897061,131.77558364661738,12152.400672912598
-35.64901116985543,131.77298839700785,12152.75457572937
-35.63766445448038,131.7704802363114,12153.109205245972
-35.626325255975416,131.7678849867019,12153.459474563599
-35.61496726529526,131.76537682600545,12153.817737579346
-35.603639342095406,131.7628512475264,12154.168006896973
-35.59228135141525,131.76032566904735,12154.524816513062
-35.58093463604021,131.75786976169874,12154.880899429321
-35.569591679100206,131.75543127213277,12155.233348846436
-35.5582487221602,131.75283602252324,12155.587251663208
-35.54689448991509,131.75027560847897,12155.94188117981
-35.53555904984516,131.74783711891297,12156.295783996582
-35.52423488508033,131.7452941226513,12156.651140213013
-35.51288816970529,131.74278596195487,12157.004316329956
-35.501552729635364,131.74031263682366,12157.358219146729
-35.490224806435506,131.73787414725766,12157.715755462646
-35.478885607930536,131.73540082212645,12158.071111679077
-35.46753513412046,131.7329971681257,12158.42428779602
-35.4562072109206,131.73045417186404,12158.781824111938
-35.44486801241563,131.72791117560234,12159.135000228882
-35.433555122955916,131.72554235716683,12159.488903045654
-35.422208407580875,131.72298194312253,12159.846439361572
-35.4108992765562,131.72054345355656,12160.202522277832
-35.39956007805123,131.71803529286012,12160.557878494263
-35.38823967172144,131.71563163885935,12160.910327911377
-35.37691550695662,131.71319314929337,12161.268590927124
-35.3655913421918,131.7107546597274,12161.622493743896
-35.35426341899194,131.7082987523788,12161.979303359985
-35.34295428796727,131.7058428450302,12162.335386276245
-35.33163388163748,131.70338693768159,12162.692195892334
-35.32031347530769,131.70093103033298,12163.047552108765
-35.30899682741294,131.6985970474627,12163.402181625366
-35.29767266264812,131.69617597567932,12163.759717941284
-35.28636729005848,131.69373748611335,12164.117254257202
-35.275050642163734,131.69128157876474,12164.471883773804
-35.26372647739891,131.68887792476397,12164.827239990234
-35.252413587939195,131.68650910632846,12165.183322906494
-35.241115732219626,131.68414028789292,12165.544492721558
-35.229817876500064,131.68161470941388,12165.897668838501
-35.21849747017028,131.67928072654357,12166.25447845459
-35.20718458071056,131.67689449032542,12166.611288070679
-35.19587920812092,131.67447341854205,12166.971004486084
-35.18457759396632,131.6720871823239,12167.326360702515
-35.17327597981171,131.669735781671,12167.681716918945
-35.161963090352,131.6674192165833,12168.039979934692
-35.15067650993755,131.66499814479994,12168.395336151123
-35.13936362047783,131.66254223745133,12168.755052566528
-35.12808079849841,131.6602953434941,12169.113315582275
-35.11677542590877,131.65787427171074,12169.468671798706
-35.105488845494314,131.6554880354926,12169.824754714966
-35.09417219759956,131.6531540526223,12170.18592453003
-35.082885617185106,131.6508026519694,12170.544187545776
-35.07159903677064,131.6484686690991,12170.903177261353
-35.06030118105108,131.64613468622878,12171.259986877441
-35.049029634376765,131.6438007033585,12171.61679649353
-35.037724261787126,131.6415015560534,12171.976512908936
-35.02643768137267,131.63916757318313,12172.333322525024
-35.015158617828284,131.63683359031282,12172.6923122406
-35.00387579584886,131.63451702522514,12173.050575256348
-34.99258921543441,131.6321482067896,12173.407384872437
-34.981313910325056,131.62984905948454,12173.76928138733
-34.97002357147556,131.62753249439683,12174.127544403076
-34.95874074949614,131.62519851152655,12174.486534118652
-34.947457927516716,131.62289936422147,12174.843343734741
-34.93619013927744,131.62065247026425,12175.204513549805
-34.92490355886299,131.6183707407418,12175.562049865723
-34.91363952905874,131.61600192230625,12175.922492980957
-34.902375499254504,131.61378986391426,12176.281482696533
-34.89108891884005,131.61149071660918,12176.641199111938
-34.87982488903581,131.60922640486933,12177.001642227173
-34.86854958392646,131.60687500421642,12177.35917854309
-34.85728555412222,131.6046455280418,12177.719621658325
-34.84601776588294,131.60234638073675,12178.077157974243
-34.834765011383816,131.60013432234473,12178.437601089478
-34.823489706274465,131.59790484617014,12178.798044204712
-34.81222567647023,131.5956405344303,12179.15558052063
-34.800957888230954,131.59337622269044,12179.517477035522
-34.78970137529679,131.59107707538536,12179.876466751099
-34.778456137667725,131.58888243477597,12180.23908996582
-34.76719210786349,131.58660070525352,12180.598079681396
-34.75592807805925,131.58442348242676,12180.957069396973
-34.74468659886523,131.58210691733908,12181.318239212036
-34.73343008593106,131.57989485894706,12181.67868232727
-34.722166056126824,131.57766538277244,12182.041305541992
-34.710924576932804,131.57545332438045,12182.39956855774
-34.69967182243367,131.57322384820583,12182.760738372803
-34.68843786010972,131.57101178981384,12183.124814987183
-34.677173830305485,131.56878231363922,12183.4823513031
-34.665924834241395,131.5666399263777,12183.841341018677
-34.65467207974226,131.5643581968552,12184.20323753357
-34.643449392723426,131.56223322737628,12184.56658744812
-34.63218912135422,131.56000375120166,12184.929210662842
-34.6209476421602,131.5578265283749,12185.288200378418
-34.6097287135764,131.55566672333075,12185.653003692627
-34.59849099281742,131.55343724715613,12186.009813308716
-34.58724951362339,131.5513296954598,12186.372436523438
-34.57601555129945,131.54915247263304,12186.736513137817
-34.56478910584557,131.54694041424105,12187.094776153564
-34.553536351346445,131.5447806091969,12187.455945968628
-34.542317422762636,131.54256855080487,12187.820022583008
-34.53107970200366,131.5404958346738,12188.181192398071
-34.51986453185489,131.53833602962965,12188.543088912964
-34.508638086401014,131.53626331349855,12188.905712127686
-34.49740788251211,131.5339990017587,12189.269062042236
-34.48617392018816,131.53196112119284,12189.628778457642
-34.47496626690946,131.5298187339313,12189.99430847168
-34.463743579890625,131.52765892888715,12190.355478286743
-34.45252840974186,131.52548170606036,12190.718828201294
-34.44129444741791,131.52333931879883,12191.082178115845
-34.430083035704186,131.52130143823297,12191.444801330566
-34.418864107120385,131.5191416331888,12191.807424545288
-34.40764893697162,131.51710375262294,12192.168594360352
-34.39645631743307,131.51487427644832,12192.53339767456
-34.385241147284304,131.5128363958825,12192.89820098877
-34.37402597713554,131.51062433749047,12193.260097503662
-34.36281832385685,131.50862129248983,12193.621994018555
-34.35159939527304,131.50651374079354,12193.985343933105
-34.340410534169536,131.50445844244507,12194.350147247314
-34.329199122455805,131.50238572631397,12194.713497161865
-34.31799522761215,131.50031301018288,12195.075393676758
-34.30679133276849,131.4982577118344,12195.440196990967
-34.29559119635987,131.4961501601381,12195.803546905518
-34.2844060936914,131.49414711513745,12196.166896820068
-34.27319468197767,131.49202214565852,12196.53024673462
-34.26201709617927,131.48996684731006,12196.895050048828
-34.25079816759547,131.48798122009205,12197.261306762695
