Latitude,Longitude,Altitude (m)
-10.906381264207953,15.64904754746603,11540.559519739152
-10.895029502508251,15.648401305909749,11540.83009188652
-10.883660028100985,15.647784174333479,11541.102037496568
-10.87227805060603,15.647195033122607,11541.376730031969
-10.860884611947355,15.646629627741591,11541.652109298708
-10.84948075404894,15.646085495038276,11541.930922222138
-10.838057099595012,15.6455581565542,11542.21042187691
-10.826631361293137,15.645045149137207,11542.491981725694
-10.815196245675493,15.644543561789295,11542.774915037156
-10.803752794666053,15.644050035666618,11543.060595273973
-10.792302050188795,15.643561211925327,11543.349022436143
-10.780842970319743,15.643073283875731,11543.63882306099
-10.769374513134922,15.642584236211517,11543.930683879853
-10.757902930178178,15.64209071008884,11544.22529162407
-10.74643030529746,15.641588003126312,11544.52333302498
-10.734948303100975,15.641074100017628,11544.822061157227
-10.723466300904487,15.640546537610627,11545.123536214829
-10.711985340631974,15.640000613523927,11545.428444929124
-10.700496044967668,15.639434088528295,11545.736100568773
-10.689014042771182,15.638842260242345,11546.045129671098
-10.677527872878798,15.63822400905146,11546.358279161454
-10.666043786834363,15.637575080420099,11546.674175577165
-10.654560742713903,15.636891219812725,11546.991445455553
-10.64308186628934,15.636171531537641,11547.314209184648
-10.631606115636698,15.635410641444693,11547.63834637642
-10.620136616527903,15.634607205996343,11547.966603956223
-10.608671285115005,15.63375629888828,11548.297608461382
-10.597214289093902,15.632856128737117,11548.631359891893
-10.585763544616643,15.631902217084393,11548.969918441773
-10.574316967835282,15.63089187685503,11549.309850454332
-10.562882894141612,15.629821525282255,11549.655276317597
-10.551456113915762,15.628688923136837,11550.003449106218
-10.540040794853628,15.627490263729083,11550.356429014208
-10.52864110465111,15.626221740369298,11550.71215584755
-10.517246624068463,15.624881113828252,11551.072003068924
-10.505868814269403,15.623464353493326,11551.434597215653
-10.494503507558035,15.621969667981135,11551.80268521309
-10.483150703934358,15.620391235295676,11552.176267061235
-10.471816654942218,15.618728159745258,11552.549848909379
-10.460499276733668,15.616975962871416,11552.931671533586
-10.449196485460755,15.615132853290767,11553.316241083146
-10.437913490743355,15.613194576467766,11553.704931020739
-10.426647166809543,15.6111571017898,11554.100488271715
-10.415402723279191,15.609018861796406,11554.499479179383
-10.404177034380375,15.606774930183272,11554.902590475083
-10.392974267808993,15.604423291644093,11555.310508890154
-10.381790255869149,15.601959691643325,11555.725294618607
-10.370633333952636,15.59938278664343,11556.142827272417
-10.3595097536033,15.596672423581325,11556.892737894059
-10.348416389049216,15.593833752684239,11557.818451738358
-10.337353240290389,15.59087058064187,11558.804597940447
-10.326327600794633,15.587786042375138,11559.799671649935
-10.31533426094208,15.584582377113279,11560.7871913147
-10.304385723820422,15.581254210706133,11561.758229427338
-10.293485115201578,15.57779639292647,11562.71072579384
-10.282640770477348,15.574201086471978,11563.641933488847
-10.27187769582311,15.570458438734036,11564.5525392437
-10.261202142782711,15.566557701412334,11565.441169595719
-10.250357798058479,15.56296799303092,11555.936807870867
-10.23932173932298,15.559602879341453,11540.900138483048
-10.22816064971057,15.556300911916319,11523.90285112381
-10.216966218530983,15.552923706388999,11506.438586454393
-10.205834302789853,15.549376095517143,11489.002477769853
-10.194823250229737,15.545605009567957,11471.72775094986
-10.183985157049351,15.541588728017897,11454.64050178528
-10.17332835864049,15.537321204948034,11437.74073027611
-10.162876819254558,15.532810725506527,11421.02294257164
-10.152619077727842,15.528064679149841,11404.487138671877
-10.142554092136367,15.523090679257361,11388.13057165146
-10.132680820556157,15.517897234900172,11371.952554779054
-10.122988843747471,15.512491511611813,11355.951027860643
-10.11347607786236,15.506877987850748,11340.130111284258
-10.10413627135698,15.501060246383746,11324.486371393205
-10.094971508079276,15.495043213515121,11309.02324184418
-10.085971368789506,15.488830472011639,11293.74003590584
-10.077132727715751,15.482423589333767,11278.638813772202
-10.068457668705955,15.475827043939963,11263.71888871193
-10.059944107912171,15.469043522905311,11248.9816341877
-10.051581626094658,15.462077280765348,11234.429797124863
-10.043379600569182,15.454929884980535,11220.06063059807
-10.035327612096003,15.447605366163492,11205.875508069994
-10.027419409131271,15.440105515697603,11191.875803003313
-10.019663327066784,15.432434812041333,11178.061515398027
-10.012053114358697,15.424595942269757,11164.431958522799
-10.004578351767263,15.41659181738088,11150.986445646287
-9.99724529083633,15.408425348372699,11137.725663499834
-9.99005184771795,15.400100565857835,11124.64755188942
-9.982991770868278,15.391620156911365,11111.749363889696
-9.976060892591416,15.38298636076252,11099.037966814043
-9.969262338659286,15.374203655869763,11086.511987199785
-9.962588815604068,15.365275624999866,11074.170051584246
-9.956043449197686,15.356203835613291,11062.012846698763
-9.949615820200398,15.346992094399733,11050.034878692628
-9.943304886688226,15.337642864511343,11038.23683429718
-9.937115858281047,15.328161072252437,11026.616653318406
-9.931040399587062,15.318548509006394,11015.17982960701
-9.925077468682298,15.308808533617066,11003.943531446457
-9.919217688250988,15.298945624542915,10992.976431970597
-9.913472519456848,15.28896179709025,10982.064271001816
-9.90782320766834,15.278859514411225,10971.202928152086
-9.902282255973157,15.26864370281015,10960.391029958726
-9.896837161283607,15.25831592974749,10949.6278896904
-9.89149000744764,15.24788112152755,10938.910073690415
-9.886236626769355,15.237341517379566,10928.236895227434
-9.88107076770491,15.22670025222446,10917.60492064476
-9.87599138833033,15.215961132751927,10907.012776479722
-9.871005782113436,15.20512662211412,10896.458402538301
-9.866100404042559,15.194200303077812,10885.93973862648
-9.861272128345778,15.183185534486851,10875.453351087572
-9.856523038871043,15.172085003416313,10864.997179727556
-9.851851051770405,15.160903188324665,10854.57259800911
-9.847251999347964,15.149642552364057,10844.172738618852
-9.842721713907826,15.13830578260957,10833.796228094103
-9.838260195449989,15.126897133596746,10823.4437531662
-9.833863276278558,15.115419068477735,10813.109819984436
-9.829528872545582,15.103875170019313,10802.793741817475
-9.82524864885927,15.092267677450707,10792.49277173996
-9.821028856763466,15.080602188845,10782.204849557878
-9.816863244714323,15.068879823816808,10771.925854883195
-9.81275389655979,15.057104165132898,10761.655100984575
-9.808688309212178,15.045279467328815,10751.391214399338
-9.804669608443408,15.033407969633787,10741.130074739458
-9.800694668481556,15.021493254814585,10730.868935079576
-9.796762447402651,15.009539353483829,10720.60573522568
-9.79286773558682,14.997547161333209,10710.338414983751
-9.789008449186113,14.985522276435807,10700.064914159775
-9.78517937858066,14.9734673858667,10689.780425634386
-9.781383649542384,14.961384952778042,10679.486322870256
-9.777613968603465,14.949279455628297,10669.17642528534
-9.77386929383993,14.937153133646696,10658.850046148302
-9.770146499479852,14.925009121754165,10648.505125265123
-9.766448711295158,14.91285145056332,10638.138228979113
-9.76276238427418,14.90068347891801,10627.745923633576
-9.759088560340894,14.888506998201617,10617.327522497179
-9.755429323343249,14.876327830410148,10606.879591913224
-9.751776337889448,14.864146199466523,10596.398011493684
-9.748135855523339,14.851967927366747,10585.883467969896
-9.744491205461333,14.839795029417125,10575.33115422249
-9.740849681171248,14.827631536230278,10564.740383520128
-9.737206073033217,14.815479687035436,10554.105662012102
-9.733557255275313,14.803343960291063,10543.426302967073
-9.729900102125615,14.791226147380543,10532.699559459686
-9.726230445888227,14.779130502839417,10521.924058027269
-9.722550370411096,14.767060609434457,10511.094991550446
-9.718856749922297,14.755019826009509,10500.210986566544
-9.715139165182093,14.743010615716729,10489.269982881548
-9.711399700038427,14.731037904860427,10478.26854683876
-9.707639396415278,14.71910370874691,10467.204618244172
-9.703849918920847,14.70721161014295,10456.075450172426
-9.700030225631162,14.695365191815318,10444.878295698167
-9.696179274622251,14.683567588684937,10433.61246809006
-9.692287688578341,14.671822831364427,10422.27316022873
-9.688362760967255,14.660132935160094,10410.857625188828
-9.68439407254925,14.648503050299173,10399.365862970353
-9.680378497552402,14.636935863856738,10387.793753185273
-9.676316035976713,14.625434062907873,10376.139235639574
-9.672204603974233,14.614003021602729,10364.399563407898
-9.668040033849064,14.602644083478848,10352.571989564896
-9.663819199829286,14.591362846609309,10340.654453916552
-9.659538976142972,14.580160878454574,10328.644896268846
-9.655196237018203,14.569043105318952,10316.540569696428
-9.65078681475908,14.55801266212337,10304.34010073662
-9.646308625517657,14.547072907711671,10292.040055732728
-9.641758543522007,14.536227648773552,10279.637001028063
-9.637135526848159,14.525480468075784,10267.130249891283
-9.632435407800214,14.514834948385138,10254.517055397035
-9.627649850986378,14.50429444854546,10241.793983888627
-9.622781982178575,14.493864566629831,10228.959661903382
-9.617831801376806,14.483546422252866,10216.012715978624
-9.612787847417351,14.473345165641799,10202.949712457657
-9.607648036452263,14.463264827409246,10189.767217683793
-9.602412368481541,14.45330854247613,10176.46523165703
-9.59707667580929,14.443480117532149,10163.040320720675
-9.591638874587561,14.433783807112839,10149.489051218034
-9.586091671348532,14.42422431359959,10135.81142314911
-9.580431940320283,14.414804100144556,10122.00331612587
-9.574662807274734,14.405528093052045,10108.0626699543
-9.568773852972145,14.396400099011753,10093.988111171724
-9.562767161260462,14.38742437255922,10079.776206121445
-9.556632312899943,14.37860404861537,10065.42626807213
-9.550368265966615,14.36994382956159,10050.934863367082
-9.543972936612528,14.361449089548037,10036.299245080949
-9.537445282913708,14.353122963495634,10021.518039751054
-9.530775927554389,14.344969929862843,10006.588500452042
-9.523963828610592,14.336994691031055,9991.509253721239
-9.517005860310398,14.32920082976704,9976.277552633286
-9.50989785495791,14.32159237668341,9960.889276800157
-9.502632519085305,14.314175601622019,9945.345799684526
-9.49521089461656,14.30695363950379,9929.643000898363
-9.487628813855776,14.299930744864263,9913.776760053635
-9.479876899487186,14.293113299506748,9897.747077150347
-9.471958277282713,14.286504550313634,9881.551205263138
-9.463861486078638,14.280109759473612,9865.186397466661
-9.45558548395099,14.273933741329532,9848.651280298234
-9.447127145127844,14.267981646108627,9831.943106832505
-9.43848438576125,14.262257056577665,9815.05913014412
-9.429646786611467,14.256766690424346,9797.996603307725
-9.420613305754523,14.251514578261284,9780.754152860643
-9.411379775494517,14.246505982277176,9763.329031877518
-9.401942028135554,14.24174661250656,9745.719866895677
-9.392292770209814,14.237241059369364,9727.922537527085
-9.382432001717296,14.232995032900124,9709.937043771744
-9.372349303418257,14.229014243133388,9691.757205047608
-9.362040507616802,14.225303728334922,9673.383708086016
-9.351508740084853,14.221868750693423,9654.813119230272
-9.340740455810742,14.218715132204892,9636.043378286362
-9.329730445174603,14.215849030749718,9617.071051597597
-9.318479750100403,14.213275484593671,9597.896139163971
-9.306981077120328,14.211001547308832,9578.513147134781
-9.295224006994635,14.20903124950782,9558.921388778688
-9.283206455875371,14.207371868685634,9539.118117170336
-9.270928423762541,14.20603001056851,9519.099898653032
-9.258380533340373,14.205010489499296,9498.864673032762
-9.2455534072931,14.204320582972993,9478.409693384172
-9.232137594200363,14.204683338108538,9442.416730470659
-9.217998685869482,14.20604770047944,9396.572606506348
-9.203130430756609,14.208241473357782,9346.208416872025
-9.187618266627634,14.211089772940564,9294.007220907213
-9.171572637423832,14.214449512479877,9241.043753156662
-9.155083148606991,14.218222501773909,9187.68335469246
-9.138218567159411,14.222345482596861,9134.03315560341
-9.121033073127755,14.226781395704952,9080.115131292345
-9.103557924231252,14.231505385653705,9025.929281759263
-9.085818126645282,14.236495396035192,8971.47423354149
-9.067838686545231,14.241731385747784,8916.751360101702
-9.049632107018788,14.247189507000167,8861.76340836525
-9.031231729633129,14.25284311296448,8806.517245645524
-9.012650057475948,14.25866421327533,8751.021112718583
-8.993921474038395,14.26462302618393,8695.286684017183
-8.975067859723927,14.270686411097653,8639.325633974076
-8.956116304555879,14.2768205556551,8583.151010484697
-8.937102233949375,14.282993326916793,8526.778608369828
-8.918048570231846,14.289168113484797,8470.224909181596
-8.898996990362269,14.2953105431904,8413.510514860154
-8.879965207048201,14.30138355678982,8356.651906957628
-8.861004274564385,14.307349759154885,8299.66968741417
-8.842132947542355,14.313173098694966,8242.585831632616
-8.823394986789033,14.318814612821429,8185.422315015794
-8.804819566175697,14.324236458560256,8128.201799697877
-8.786264984041846,14.329903052054114,8060.054015321733
-8.767654138013386,14.335747888194819,7984.52936290741
-8.749024537353387,14.341602576944144,7905.456369667054
-8.73049496139492,14.3473000718014,7824.959782361985
-8.7121821056231,14.352716767312995,7743.98935043335
-8.69418599473946,14.357787054062438,7662.922776117326
-8.676552473398868,14.362498616288956,7581.897405681611
-8.659299254308884,14.366880787895484,7500.957189931871
-8.642405498990025,14.37098417546266,7420.11311656952
-8.625837865875111,14.374876403713282,7339.361065206529
-8.609550510309278,14.378632262903691,7258.6879879474645
-8.593479874930095,14.382330797825766,7178.0746563148505
-8.577567611995,14.386051277194314,7097.497034711839
-8.561753289913486,14.389876328567983,7016.92696715355
-8.545963974007357,14.393887459890811,6936.343164968492
-8.530135064990205,14.398168418336063,6855.643991918565
-8.514191544335882,14.402802951077009,6774.789617586137
-8.498070896605933,14.407876820593223,6693.736091165543
-8.481696019426261,14.413473997980898,6612.436028194428
-8.465002313510462,14.419680917488376,6530.838610553742
-8.447902257244696,14.426586924362006,6448.888899736406
-8.430333335190507,14.434278676773054,6366.53058377266
-8.412216361125852,14.442846415659563,6283.706663961411
-8.39347840037253,14.452379710190801,6200.353961019517
-8.374044434404393,14.462970592688194,6116.413416051865
-8.353826941607602,14.474709528012701,6031.819102849961
-8.332759238847807,14.48769123556083,5946.509215593339
-8.31076005605501,14.502008867268618,5860.417828073502
-8.287737703919477,14.517757590378414,5773.480044178964
-8.26362133161096,14.535033243901339,5685.629594335556
-8.238335920603307,14.55393301038605,5596.800208969116
-8.21196690866241,14.57421594876721,5510.996561880112
-8.185270732593592,14.595188793674671,5427.398695850373
-8.158997577658328,14.616178208878448,5350.579554862977
-8.1323868393554,14.638713811866745,5277.78259932518
-8.103698504647772,14.664947725854196,5210.66353849411
-8.072111537443718,14.695601430499266,5146.468923068047
-8.037492571474528,14.730185878137746,5088.697649216652
-7.998622555690307,14.769894801873079,5034.477463116646
-7.953590601522236,14.816785381600468,4972.942558164596
-7.901771554585751,14.870616676254578,4904.487461514474
-7.8442448481182,14.929286049586802,4831.831629266739
-7.783027646933775,14.990045519483935,4757.393385829926
-7.720364255273059,15.050350425847027,4682.849385766984
-7.65823432868717,15.10822979910629,4609.270243234635
-7.59821325622521,15.162335175418367,4537.316593780518
-7.5414117288437525,15.211855282032596,4467.386054849625
-7.48855909332479,15.256380563922491,4399.703874320984
-7.440045029234699,15.295790550555385,4334.37340526104
-7.396042495953209,15.330162047493925,4271.411472587585
-7.356518151913144,15.35970509444005,4210.764854621887
-7.321324043910156,15.38471526965235,4152.327451372147
-7.290214277886318,15.405549058424521,4095.948868675232
-7.26288877973704,15.422600789024271,4041.4454058980946
-7.238999546854912,15.436442136674467,3984.9239830827714
-7.218113138866639,15.447520275452685,3926.7533749580384
-7.199875301620968,15.456252373764805,3867.858265271187
-7.183963038685873,15.463069035392088,3808.803490548134
-7.170057521325228,15.468440498473202,3749.7490591907504
-7.157773237668551,15.472375272079226,3703.544744639397
-7.146895551377143,15.475503251393054,3667.986826028824
-7.136863907352844,15.478658325380584,3638.667174897194
-7.126961461901355,15.48265803663433,3612.280553312302
-7.116504712895553,15.488156016167038,3586.8766442728042
-7.104926853693434,15.495590033293514,3561.438398666382
-7.091854875512207,15.50518960901001,3535.4833877277374
-7.077069974317276,15.517017889580865,3508.8134894657137
-7.060474209255058,15.531025164117134,3481.377885761261
-7.042084251109142,15.547078422402448,3453.2019856739043
-7.021977202253626,15.564996286869038,3424.354118971825
-7.000267674325677,15.584565135048194,3394.930084676743
-6.977118207465284,15.605551191408123,3365.046970481873
-6.952718431835763,15.62770724504164,3334.83079158783
-6.927245474512741,15.650780263045556,3304.421984553337
-6.900916055682867,15.67451116659776,3273.9671665191654
-6.873919805509458,15.698637070186443,3243.6170750141146
-6.8464796957230085,15.722895536145646,3213.5272546863557
-6.818804111118374,15.747019872273869,3183.858400669098
-6.791105604186305,15.770745177752993,3154.770521364212
-6.763600895113451,15.793805656073213,3126.424998636246
-6.736502536390564,15.815694345736459,3104.6624825191498
-6.710325238460934,15.835962281281766,3088.9116125392916
-6.685552454048623,15.854208640676653,3077.471355171204
-6.662528018065142,15.870161133646539,3068.975458416939
-6.641491573024574,15.883698393967062,3062.5528035736083
-6.622536892084603,15.89482154125284,3057.6825049209597
-6.605703568356251,15.903623951362837,3054.0417987298965
-6.590916583313371,15.910265505264196,3051.3989131736757
-6.578073828406485,15.914954003429628,3049.5646537685398
-6.567002344255862,15.91795121175632,3048.135565853119
-6.557437482172037,15.919601971545964,3046.9852908611297
-6.549052078027089,15.92027172500918,3046.0568300914765
-6.541550225412325,15.920287623536725,3045.307606201172
-6.534661024094433,15.91990426749225,3044.7012224292757
-6.528169837734714,15.919305945441527,3044.0508878517153
-6.521949551608304,15.918602379616912,3043.3541989088058
-6.5158897217739336,15.917847983288738,3042.6461788988113
-6.509940335880836,15.917065820518088,3041.953266978264
-6.504070136209783,15.916263280761429,3041.2891977739337
-6.498252032737444,15.915443498939688,3040.6584350395206
-6.492483941615869,15.914603340131936,3040.0620088720325
-6.486755443605317,15.913738773725559,3039.4961422491074
-6.481056119466045,15.912847336568401,3038.9584316110613
-6.475381801502155,15.911927237277075,3038.4464733982086
-6.469740825105442,15.910975564853583,3037.9578640508653
-6.464110267948472,15.909989184376998,3037.489856643677
-6.458500549270987,15.908968991539016,3037.040734348297
-6.4529116690729875,15.907941409244566,3035.734227976799
-6.44732070502704,15.90691673794812,3033.675064058304
-6.441729740981091,15.90590460633537,3031.1307244491577
-6.436134609239247,15.904922704317249,3028.3051683568956
-6.430554064433041,15.904214212188325,3020.150920443535
-6.4247630509840326,15.903947519986824,3007.3701635026932
-6.418574022576852,15.904250487701878,2991.6354317092896
-6.41189945759766,15.905177080757976,2974.2710864496235
