Latitude,Longitude,Altitude (m)
22.903334,120.273445,-12.487823
22.903343,120.27345,-13.162184
22.90335,120.27346,-13.837286
22.90336,120.27347,-14.513098
22.903368,120.27348,-15.18945
22.903378,120.2735,-15.866216
22.903385,120.273506,-16.543304
22.903395,120.27351,-17.220566
22.903402,120.27352,-17.89793
22.903412,120.27354,-18.575237
22.90342,120.273544,-19.252403
22.903429,120.27355,-19.929323
22.903435,120.27356,-20.605858
22.903444,120.273575,-21.281906
22.903452,120.27358,-21.95737
22.903461,120.27359,-22.632124
22.903467,120.2736,-23.30608
22.903477,120.27361,-23.97912
22.903482,120.27362,-24.65114
22.903492,120.27363,-25.322033
22.9035,120.27364,-25.991703
22.903507,120.27365,-26.660042
22.903513,120.27366,-27.326939
22.903522,120.273674,-27.992353
22.903528,120.27368,-28.65609
22.903536,120.27369,-29.318121
22.903543,120.273705,-29.978325
22.903551,120.27371,-30.636642
22.903557,120.27372,-31.292915
22.903564,120.273735,-31.9471
22.903572,120.27374,-32.599106
22.903578,120.27375,-33.24882
22.903585,120.273766,-33.89618
22.903591,120.27377,-34.541073
22.903599,120.27378,-35.183414
22.903606,120.273796,-35.823135
22.903612,120.2738,-36.46016
22.90362,120.27382,-37.094402
22.903625,120.27383,-37.725773
22.903631,120.273834,-38.35418
22.903639,120.27385,-38.979584
22.903645,120.27386,-39.601894
22.90365,120.273865,-40.221027
22.903656,120.27389,-40.83692
22.903662,120.273895,-41.449497
22.90367,120.2739,-42.058697
22.903673,120.27392,-42.664455
22.90368,120.273926,-43.266685
22.903687,120.27393,-43.865368
22.90369,120.27395,-44.460396
22.903698,120.27396,-45.051723
22.903704,120.273964,-45.639275
22.903708,120.27398,-46.22305
22.903713,120.27399,-46.802937
22.903719,120.273994,-47.3789
22.903723,120.27401,-47.950886
22.903728,120.27402,-48.518833
22.903734,120.274025,-49.082726
22.903738,120.27403,-49.642483
22.903744,120.27405,-50.198055
22.90375,120.274055,-50.749435
22.903753,120.27406,-51.29654
22.903757,120.27408,-51.83937
22.903763,120.274086,-52.377827
22.903769,120.27409,-52.911926
22.90377,120.2741,-53.441597
22.903776,120.27412,-53.966793
22.90378,120.274124,-54.487534
22.903784,120.27413,-55.003727
22.903788,120.27414,-55.515354
22.903793,120.27415,-56.022415
22.903797,120.27416,-56.52483
22.903801,120.27417,-57.022594
22.903803,120.27418,-57.515675
22.903809,120.274185,-58.004036
22.903812,120.27419,-58.487648
22.903816,120.27421,-58.96648
22.903818,120.274216,-59.44051
22.903822,120.27422,-59.90971
22.903826,120.27423,-60.374035
22.90383,120.27424,-60.833473
22.903833,120.27425,-61.287987
22.903835,120.274254,-61.737545
22.903837,120.27426,-62.182137
22.903841,120.27427,-62.62171
22.903845,120.27428,-63.05624
22.903847,120.2743,-63.48568
22.903849,120.27431,-63.91002
22.903852,120.274315,-64.32921
22.903854,120.27432,-64.74322
22.903856,120.27433,-65.152016
22.90386,120.27434,-65.55555
22.903862,120.274345,-65.953804
22.903864,120.27435,-66.346725
22.903866,120.27435,-66.734276
22.903868,120.27436,-67.11639
22.90387,120.27437,-67.49305
22.903872,120.274376,-67.86419
22.903873,120.27438,-68.22979
22.903875,120.27439,-68.58976
22.903877,120.2744,-68.94405
22.90388,120.27441,-69.292656
22.903881,120.274414,-69.635475
22.903881,120.27442,-69.97244
22.903883,120.27442,-70.30353
22.903883,120.27443,-70.62864
22.903885,120.27444,-70.94773
22.903885,120.274445,-71.260735
22.903887,120.27445,-71.567566
22.903887,120.27445,-71.86817
22.903889,120.27446,-72.162476
22.903889,120.27447,-72.45038
22.90389,120.27447,-72.73183
22.90389,120.274475,-73.00674
22.90389,120.27448,-73.27501
22.90389,120.27448,-73.53658
22.90389,120.27449,-73.79136
22.90389,120.2745,-74.03926
22.90389,120.2745,-74.28019
22.90389,120.274506,-74.51406
22.90389,120.27451,-74.74079
22.90389,120.27451,-74.96026
22.90389,120.27452,-75.1724
22.90389,120.27452,-75.37709
22.903889,120.27453,-75.57424
22.903889,120.27453,-75.76377
22.903887,120.274536,-75.945564
22.903887,120.274536,-76.11951
22.903885,120.27454,-76.28552
22.903885,120.27454,-76.44351
22.903883,120.27454,-76.59332
22.903881,120.27455,-76.73492
22.903881,120.27455,-76.868126
22.903881,120.27456,-76.99289
22.90388,120.27456,-77.10907
22.903877,120.27456,-77.21659
22.903875,120.27457,-77.31533
22.903873,120.27457,-77.40517
22.903872,120.27457,-77.48601
22.90387,120.27457,-77.557755
22.903866,120.274574,-77.62027
22.903864,120.274574,-77.67349
22.903864,120.274574,-77.71728
22.90386,120.274574,-77.75155
22.903858,120.274574,-77.77616
22.903854,120.274574,-77.79104
22.903852,120.27458,-77.796074
22.903849,120.27458,-77.791145
22.903847,120.27458,-77.77616
22.903843,120.27458,-77.75102
22.903841,120.27458,-77.71562
22.903837,120.27458,-77.669846
22.903833,120.27458,-77.613594
22.903831,120.27458,-77.54679
22.903828,120.27458,-77.46931
22.903822,120.27458,-77.381065
22.903818,120.274574,-77.28195
22.903816,120.274574,-77.17188
22.903812,120.274574,-77.05076
22.903807,120.274574,-76.91848
22.903803,120.274574,-76.77497
22.9038,120.27457,-76.62011
22.903793,120.27457,-76.45381
22.90379,120.27457,-76.276024
22.903784,120.27457,-76.0866
22.90378,120.27456,-75.8855
22.903774,120.27456,-75.6726
22.903769,120.27455,-75.44783
22.903765,120.27455,-75.21111
22.903759,120.27455,-74.96233
22.903753,120.27454,-74.70143
22.90375,120.27454,-74.42832
22.903742,120.274536,-74.142914
22.903736,120.27453,-73.84512
22.90373,120.27453,-73.53486
22.903725,120.27452,-73.21206
22.903719,120.27452,-72.87662
22.903711,120.27451,-72.528465
22.903706,120.274506,-72.16752
22.9037,120.2745,-71.793686
22.903692,120.2745,-71.40686
22.903687,120.27449,-71.006996
22.903679,120.27448,-70.59398
22.903671,120.274475,-70.16772
22.903664,120.27447,-69.728134
22.903656,120.27446,-69.27511
22.903648,120.27445,-68.808556
22.90364,120.274445,-68.328384
22.903633,120.27444,-67.83447
22.903624,120.27443,-67.32674
22.903618,120.27442,-66.805046
22.903608,120.274414,-66.26929
22.9036,120.2744,-65.71933
22.903591,120.27439,-65.15506
22.903584,120.27438,-64.57633
22.903574,120.27437,-63.98302
22.903564,120.27436,-63.374985
22.903557,120.27435,-62.75207
22.903545,120.27434,-62.114098
22.903538,120.27433,-61.460934
22.903526,120.274315,-60.792393
22.903517,120.27431,-60.108284
22.903507,120.274284,-59.40843
22.903496,120.27427,-58.69265
22.903486,120.274254,-57.960712
22.903477,120.27425,-57.212425
22.903465,120.27423,-56.44756
22.903456,120.274216,-55.66588
22.903444,120.2742,-54.867188
22.903433,120.274185,-54.051216
22.903421,120.27417,-53.217686
22.903412,120.274155,-52.366383
22.903399,120.27414,-51.497036
22.903387,120.274124,-50.60936
22.903376,120.2741,-49.703083
22.903364,120.274086,-48.777927
22.90335,120.27407,-47.8336
22.90334,120.27405,-46.869827
22.903326,120.27403,-45.886295
22.903315,120.27402,-44.88273
22.903301,120.273994,-43.858807
22.903288,120.27397,-42.81425
22.903275,120.27396,-41.7488
22.903263,120.27393,-40.662098
22.90325,120.27391,-39.553864
22.903234,120.273895,-38.423824
22.903221,120.273865,-37.271687
22.903208,120.27384,-36.097168
22.903194,120.27382,-34.9
22.90318,120.273796,-33.679897
22.903166,120.27377,-32.436623
22.903152,120.27375,-31.169897
22.903137,120.27372,-29.879492
22.903122,120.2737,-28.565187
22.903107,120.273674,-27.22674
22.903091,120.27365,-25.86395
22.903076,120.27362,-24.476624
22.903063,120.2736,-23.064554
22.903048,120.27357,-21.627636
22.903032,120.273544,-20.165634
22.903015,120.27351,-18.67848
22.903,120.27349,-17.166044
22.902985,120.27345,-15.628198
22.902967,120.27342,-14.064869
22.902952,120.27339,-12.476013
22.902937,120.27337,-10.861567
22.90292,120.27334,-9.221509
22.902903,120.27331,-7.5558662
22.902887,120.27328,-5.8646264
22.90287,120.27325,-4.1478653
22.902853,120.27322,-2.4056616
22.902836,120.273186,-0.63813066
22.902819,120.273155,1.15465
22.902802,120.273125,2.9724545
22.902784,120.273094,4.8151026
22.902765,120.27305,6.6759615
22.90275,120.27302,8.517811
22.90273,120.27299,10.277335
22.90271,120.27296,11.90793
22.902689,120.272934,13.480934
22.902668,120.272896,15.168635
22.902649,120.272865,17.114939
22.90263,120.27283,19.17982
22.90261,120.2728,20.983597
22.90259,120.27277,22.139269
22.902563,120.272766,22.573084
22.902534,120.272766,22.475502
22.902498,120.27277,22.105814
22.902462,120.27278,21.6651
22.902422,120.2728,21.296198
22.90238,120.272804,21.096418
22.90234,120.27282,21.061466
22.902298,120.27283,21.114183
22.90226,120.272835,21.16627
22.902225,120.27284,21.165752
22.902199,120.27285,21.103456
22.902184,120.27285,20.997482
22.902176,120.27286,20.890154
22.902178,120.27286,20.82043
22.902185,120.27286,20.808853
22.902199,120.272865,20.846127
22.90222,120.27288,20.89905
22.902243,120.27291,20.931627
22.902267,120.27294,20.941607
22.902294,120.27297,20.966553
22.902317,120.272995,21.048626
22.902344,120.273026,21.153429
22.902369,120.273056,21.17791
22.902397,120.2731,21.022442
22.902426,120.27313,20.719381
22.90246,120.27316,20.4249
22.9025,120.27318,20.308088
22.902544,120.27318,20.380924
22.902588,120.27317,20.500004
22.902636,120.273155,20.492617
22.902678,120.27315,20.33315
22.902718,120.27313,20.128555
22.902752,120.273125,20.00114
22.902782,120.27312,19.937523
22.902803,120.27311,19.806684
22.902813,120.27311,19.459442
22.902815,120.27311,18.84423
22.902813,120.27311,18.021202
22.902813,120.27311,17.095839
22.902815,120.27311,16.145517
22.902817,120.27311,15.193879
22.90282,120.27311,14.232959
22.902822,120.27311,13.251025
22.902826,120.27311,12.24301
22.902828,120.27311,11.209234
22.90283,120.27311,10.152357
22.90283,120.27311,9.075683
22.902832,120.27311,7.982752
22.902834,120.27311,6.87707
22.902836,120.27311,5.7622986
22.902838,120.27311,4.641984
22.902838,120.27311,3.5197163
22.90284,120.27311,2.3991437
22.90284,120.27311,1.2838444
22.90284,120.27311,0.17745347
22.90284,120.27311,-0.91647047
22.902842,120.27311,-1.9942597
22.902842,120.27311,-3.052285
22.90284,120.27311,-4.08693
22.90284,120.27311,-5.094539
22.90284,120.27311,-6.071555
22.90284,120.27311,-7.014251
22.902838,120.27311,-7.919031
22.902838,120.27312,-8.782214
22.902836,120.27312,-9.6001835
22.902836,120.27312,-10.3692255
22.902834,120.27312,-11.085732
22.902832,120.27312,-11.745989
22.902832,120.27312,-12.34629
22.90283,120.27312,-12.883006
22.90283,120.27312,-13.352398
22.902828,120.273125,-13.750752
22.902826,120.273125,-14.074338
22.902824,120.273125,-14.3194475
22.902824,120.273125,-14.482252
22.902822,120.273125,-14.559065
22.90282,120.273125,-14.546096
22.902819,120.273125,-14.439514
22.902817,120.27313,-14.235557
22.902815,120.27313,-13.930421
22.902813,120.27313,-13.520237
22.902813,120.27313,-13.001274
22.902813,120.27313,-12.369632
22.902811,120.27313,-11.621558
22.90281,120.27313,-10.753225
22.90281,120.27313,-9.760906
22.902807,120.27314,-8.640823
22.902807,120.27314,-7.389303
22.902805,120.27314,-6.0026774
22.902803,120.27314,-4.4774075
22.902803,120.27314,-2.8099663
22.902803,120.27314,-0.99693173
22.902802,120.27314,0.96491295
22.902802,120.27314,3.0787585
22.902802,120.27314,5.3476415
22.902802,120.27314,7.774366
22.902802,120.27314,10.361548
22.902802,120.27314,13.111639
22.902802,120.27314,15.978509
22.902802,120.27314,18.689941
22.902802,120.27314,20.7989
22.902802,120.27314,21.916412
22.902796,120.27314,22.114014
22.90278,120.27313,21.80858
22.90276,120.273125,21.438568
22.902735,120.27312,21.179367
22.902714,120.27312,21.01575
22.902695,120.27311,20.896599
22.90268,120.27311,20.817093
22.902664,120.27311,20.794195
22.902645,120.2731,20.833014
22.902626,120.273094,20.895039
22.902605,120.27309,20.928328
22.902588,120.27309,20.902246
22.90257,120.27308,20.84302
22.902555,120.27307,20.803375
22.902536,120.27307,20.821861
22.902515,120.273056,20.8802
22.902496,120.27305,20.929024
22.902477,120.27305,20.929823
22.90246,120.27304,20.90142
22.902445,120.27303,20.89963
22.902428,120.27303,20.970846
22.90241,120.273026,21.086878
22.902393,120.27302,21.160158
22.902374,120.27302,21.104475
22.902357,120.27301,20.926613
22.902346,120.27301,20.729488
22.902348,120.273,20.639795
22.902357,120.272995,20.701319
22.902369,120.27298,20.851862
22.902378,120.27296,20.98682
22.902386,120.272934,21.049349
22.902393,120.27291,21.049631
22.902397,120.27289,21.027237
22.902405,120.27287,21.005901
22.90241,120.27285,20.986652
22.902416,120.272835,20.963614
22.902424,120.27281,20.947046
22.902428,120.2728,20.96275
22.902435,120.27279,21.032692
22.902441,120.27277,21.1369
22.902447,120.27276,21.224413
22.902454,120.272736,21.24669
22.902458,120.27272,21.199686
22.902466,120.2727,21.110394
22.902472,120.27269,21.011793
22.902477,120.272675,20.931705
