Latitude,Longitude,Altitude (m)
-37.9937146257795,131.37692543814404,11973.717538833618
-37.98216495491249,131.37399925066487,11974.030746459961
-37.97061904248052,131.37102080983783,11974.343227386475
-37.959058096308404,131.36804236901082,11974.653528213501
-37.94751594231146,131.36511618153162,11974.967462539673
-37.935958754574386,131.3621551584872,11975.278490066528
-37.924409083707374,131.35922897100804,11975.5924243927
-37.91285941284036,131.35626794796363,11975.904178619385
-37.90131350040839,131.35334176048445,11976.21520614624
-37.889767587976415,131.35038073744002,11976.527687072754
-37.87821791710941,131.34747196774347,11976.839441299438
-37.866675763112475,131.34449352691644,11977.150468826294
-37.85512233381043,131.34156733943726,11977.464403152466
-37.84358017981349,131.33867598752332,11977.775430679321
-37.832034267381516,131.33569754669628,11978.090091705322
-37.82049211338458,131.33280619478234,11978.401845932007
-37.80894995938765,131.32986258952053,11978.712873458862
-37.7973965300856,131.32695381982396,11979.026807785034
-37.7858581345237,131.32404505012738,11979.339288711548
-37.77432725583187,131.3211014448656,11979.651042938232
-37.76277006809479,131.3181578396038,11979.964250564575
-37.75123167253289,131.31526648768985,11980.27600479126
-37.73970079384106,131.31237513577588,11980.586305618286
-37.72815488140909,131.30941411273147,11980.903146743774
-37.71661648584719,131.30652276081753,11981.214900970459
-37.70507057341521,131.30363140890358,11981.525928497314
-37.69353969472339,131.3007052214244,11981.841316223145
-37.682001299161485,131.2977790339452,11982.15161705017
-37.670462903599585,131.2949225175965,11982.467004776001
-37.65893954177783,131.2919963301173,11982.779485702515
-37.647401146215934,131.28910497820334,11983.093420028687
-37.635862750654034,131.28617879072416,11983.404447555542
-37.624331871962205,131.28332227437545,11983.719835281372
-37.612793476400306,131.28039608689627,11984.032316207886
-37.601270114578554,131.27753957054753,11984.34407043457
-37.589731719016655,131.27468305419882,11984.658004760742
-37.57820459875986,131.27179170228484,11984.971212387085
-37.56667372006803,131.26886551480567,11985.28296661377
-37.55513532450613,131.26600899845695,11985.599081039429
-37.543615721119416,131.26310022876038,11985.909381866455
-37.53208484242759,131.2601914590638,11986.224769592285
-37.520553963735765,131.25736977828032,11986.538703918457
-37.509030601914006,131.25444359080115,11986.850458145142
-37.49750348165722,131.25162191001763,11987.164392471313
-37.48597260296539,131.2487305581037,11987.476873397827
-37.47445299957867,131.2459437128854,11987.791534423828
-37.462922120886844,131.24303494318886,11988.10474205017
-37.45139875906509,131.24012617349229,11988.418676376343
-37.43988291411341,131.23726965714354,11988.732610702515
-37.42836706916173,131.23444797636006,11989.045091629028
-37.4168361904699,131.23157404222871,11989.3590259552
-37.405316587083185,131.22870010809737,11989.671506881714
-37.39379698369646,131.22584359174866,11989.986894607544
-37.382277380309745,131.22302191096514,11990.298648834229
-37.37075026005296,131.2201305590512,11990.615489959717
-37.35923441510128,131.21734371383295,11990.927244186401
-37.34772232858463,131.2144697797016,11991.241905212402
-37.336210242067985,131.21168293448332,11991.556566238403
-37.32468312181119,131.2088438359172,11991.869773864746
-37.31317855216462,131.2059873195685,11992.183708190918
-37.30165519034287,131.20309596765455,11992.498369216919
-37.29014686226126,131.20027428687104,11992.815210342407
-37.27863101730958,131.19748744165278,11993.124784469604
-37.2671151723579,131.1946831786519,11993.441625595093
-37.255614361146364,131.19179182673793,11993.755559921265
-37.24409851619468,131.18898756373704,11994.068040847778
-37.23259018811307,131.18616588295356,11994.383428573608
-37.221078101596426,131.18337903773528,11994.698816299438
-37.20956601507978,131.1805573569518,11995.010570526123
-37.198057686998176,131.17771825838568,11995.327411651611
-37.18656439265671,131.1749139953848,11995.642072677612
-37.17504478926999,131.17214456794915,11995.956007003784
-37.16354021962342,131.16930546938303,11996.269941329956
-37.15203940841189,131.16650120638215,11996.585329055786
-37.14053108033028,131.1637317789465,11996.898536682129
-37.12903026911874,131.16084042703253,11997.213924407959
-37.11752194103713,131.15807099959687,11997.527132034302
-37.1060211298256,131.15530157216122,11997.842519760132
-37.094524077049094,131.15247989137774,11998.157180786133
-37.083027024272596,131.14976271728992,11998.471115112305
-37.07152621306106,131.14687136537597,11998.787229537964
-37.06001788497945,131.14411935572292,11999.102617263794
-37.0485358659431,131.14133251050467,11999.417278289795
-37.037031296296526,131.13851082972116,11999.731939315796
-37.02553048508499,131.13579365563334,12000.045873641968
-37.01403719074353,131.13302422819768,12000.362714767456
-37.0025476548371,131.1302199651968,12000.676649093628
-36.99105436049564,131.12748537332638,12000.992763519287
-36.97954979084907,131.12473336367336,12001.306697845459
-36.96806401337768,131.12192910067247,12001.622085571289
-36.956570719036215,131.11917709101942,12001.938199996948
-36.945081183129794,131.11642508136637,12002.25286102295
-36.933591647223366,131.11363823614812,12002.566795349121
-36.9220983528819,131.11088622649507,12002.88363647461
-36.910608816975476,131.10809938127682,12003.19902420044
-36.89911928106905,131.10534737162376,12003.515138626099
-36.88763350359766,131.10261277975334,12003.828346252441
-36.87615524299634,131.09987818788292,12004.145914077759
-36.86466194865488,131.09709134266464,12004.45984840393
-36.85317617118349,131.09437416857682,12004.776689529419
-36.84170166901721,131.09158732335857,12005.092077255249
-36.83021589154582,131.08885273148815,12005.40746498108
-36.81873387250947,131.08613555740033,12005.721399307251
-36.80724809503808,131.0834009655299,12006.03751373291
-36.79577735130683,131.08068379144208,12006.355081558228
-36.784287815400404,131.07793178178906,12006.671195983887
-36.77281707166917,131.07521460770124,12006.98440361023
-36.76133505263281,131.07253226917865,12007.302698135376
-36.74986055046653,131.06979767730823,12007.618812561035
-36.73838604830025,131.06702824987258,12007.933473587036
-36.726907787698934,131.06434591135,12008.249588012695
-36.715433285532654,131.0616635728274,12008.565702438354
-36.703958783366375,131.05891156317438,12008.881090164185
-36.69248803963513,131.05615955352133,12009.197931289673
-36.68101353746885,131.0534423794335,12009.513319015503
-36.66954655217264,131.0507252053457,12009.828706741333
-36.65807205000636,131.04799061347526,12010.14700126648
-36.64661258158022,131.04534311051793,12010.463115692139
-36.63513807941394,131.04264335421271,12010.778503417969
-36.62366357724766,131.03992618012492,12011.096797943115
-36.612207867256565,131.03726125938493,12011.412912368774
-36.60072960665525,131.03461375642758,12011.729753494263
-36.58927013822911,131.03189658233978,12012.045141220093
-36.57781066980298,131.02912715490413,12012.361982345581
-36.56635120137685,131.02646223416414,12012.677370071411
-36.554872940775525,131.0238321489894,12012.9942111969
-36.543432264524576,131.0211149749016,12013.311779022217
-36.53196152079333,131.01846747194423,12013.626440048218
-36.520505810802234,131.01578513342164,12013.946187973022
-36.509046342376095,131.01310279489908,12014.26302909851
-36.497590632385,131.01045529194172,12014.576963424683
-36.48613868082894,131.00777295341913,12014.895984649658
-36.47468297083784,131.00510803267917,12015.212099075317
-36.46322350241171,131.0024431119392,12015.529666900635
-36.451767792420604,130.9997259378514,12015.846508026123
-36.44031208242951,130.99707843489404,12016.16407585144
-36.428860130873446,130.9944657675019,12016.47946357727
-36.41741193775242,130.99176601119672,12016.797758102417
-36.40595998619636,130.9891707615872,12017.113145828247
-36.394508034640296,130.98652325862983,12017.432167053223
-36.38306735838935,130.98382350232464,12017.749008178711
-36.371615406833286,130.98122825271514,12018.0658493042
-36.360170972147294,130.97858074975778,12018.383417129517
-36.34872277902627,130.97588099345256,12018.698804855347
-36.337285861210354,130.9733205794083,12019.017099380493
-36.32583766808933,130.97067307645094,12019.33539390564
-36.3143894749683,130.9680429912762,12019.652235031128
-36.30295631558742,130.96539548831885,12019.971982955933
-36.2915081224664,130.96273056757886,12020.28882408142
-36.28007496308552,130.96015273575196,12020.60493850708
-36.26863428683457,130.9574703972294,12020.924686431885
-36.25719736901865,130.9548925654025,12021.240800857544
-36.245752934332664,130.95231473357558,12021.55909538269
-36.234319774951786,130.94968464840085,12021.87448310852
-36.222882857135865,130.94712423435658,12022.194231033325
-36.21144593931995,130.944441895834,12022.511798858643
-36.20002029680914,130.94182922844186,12022.827913284302
-36.188594654298335,130.93925139661496,12023.148387908936
-36.177146461177315,130.93663872922284,12023.464502334595
-36.16572833553658,130.9340260618307,12023.78352355957
-36.1542951761557,130.9314482300038,12024.102544784546
-36.14286953364489,130.9288703981769,12024.420839309692
-36.13144013269905,130.92625773078478,12024.73768043518
-36.12001824862328,130.9236798989579,12025.057428359985
-36.108592606112474,130.92106723156576,12025.374996185303
-36.097166963601666,130.9185242353041,12025.691110610962
-36.0857450795259,130.91592898569456,12026.011585235596
-36.07432695388516,130.9133859894329,12026.330606460571
-36.06289755293932,130.9107907398234,12026.64744758606
-36.05147942729859,130.90824774356173,12026.965015411377
-36.040057543222815,130.9056350761696,12027.284763336182
-36.02864317601712,130.9030746621253,12027.602331161499
-36.01723256724646,130.90044457695058,12027.921352386475
-36.00581444160572,130.8979364162541,12028.238920211792
-35.99439631596499,130.8953585844272,12028.558668136597
-35.98297819032425,130.89281558816555,12028.876962661743
-35.97156758155359,130.89027259190388,12029.196710586548
-35.960160731217975,130.8877295956422,12029.513551712036
-35.94874636401227,130.88513434603271,12029.83329963684
-35.93733951367665,130.88262618533625,12030.152320861816
-35.92593266334102,130.8801006068572,12030.469888687134
-35.914525813005405,130.87752277503031,12030.790363311768
-35.90311896266978,130.87501461433388,12031.107931137085
-35.89170459546408,130.8724890358548,12031.42767906189
-35.880301503563494,130.86992862181052,12031.748880386353
-35.86889465322787,130.86742046111408,12032.06572151184
-35.85749156132728,130.8648774648524,12032.384742736816
-35.84610350316684,130.86233446859075,12032.704490661621
-35.83469289439618,130.85980889011168,12033.025691986084
-35.823297319365665,130.85728331163264,12033.342533111572
-35.81189046903004,130.85477515093618,12033.663007736206
-35.80049865243456,130.85230182580497,12033.982028961182
-35.78910307740404,130.8497588295433,12034.301050186157
-35.77770750237353,130.84725066884687,12034.621524810791
-35.76631192734301,130.8447250903678,12034.940546035767
-35.75492386918257,130.84223434745397,12035.260293960571
-35.74353205258709,130.8396913511923,12035.580041885376
-35.732140235991615,130.83723544384372,12035.89978981018
-35.72075217783117,130.83472728314726,12036.218811035156
-35.70936411967073,130.83223654023345,12036.537832260132
-35.69796854464022,130.829728379537,12036.859033584595
-35.68659552021992,130.82725505440578,12037.1787815094
-35.675207462059475,130.8248165648398,12037.497076034546
-35.66382316233407,130.82230840414337,12037.81755065918
-35.652427587303556,130.81983507901214,12038.139478683472
-35.6410583213183,130.8173269183157,12038.457773208618
-35.62966650472282,130.81490584653233,12038.777521133423
-35.618289721867484,130.81241510361852,12039.09581565857
-35.60691669744719,130.80995919626992,12039.417016983032
-35.59553239772178,130.80746845335608,12039.736038208008
-35.58415937330149,130.8050299637901,12040.059419631958
-35.57279010731623,130.80255663865887,12040.376260757446
-35.56141708289593,130.8001007313103,12040.698915481567
-35.55002902473549,130.7976448239617,12041.018663406372
-35.538667275620305,130.79518891661309,12041.339864730835
-35.52729800963504,130.7927678448297,12041.661066055298
-35.51592122677971,130.79032935526374,12041.977907180786
-35.50455947766452,130.7878560301325,12042.300561904907
-35.49318645324423,130.78543495834916,12042.620309829712
-35.48183222099911,130.78294421543532,12042.942237854004
-35.470459196578815,130.78050572586932,12043.26125907898
-35.45909368902859,130.7781369074338,12043.5839138031
-35.44772818147837,130.7756635823026,12043.903661727905
-35.43637019079822,130.77325992830183,12044.224136352539
-35.425015958553104,130.77080402095322,12044.54751777649
-35.41365045100288,130.76848745586554,12044.865812301636
-35.40229621875777,130.76599671295173,12045.18556022644
-35.390930711207545,130.7636104767336,12045.508214950562
-35.37957647896243,130.76120682273282,12045.828689575195
-35.36822976358739,130.7587509153842,12046.14916419983
-35.356868014472205,130.7563995147313,12046.471092224121
-35.34552129909716,130.75399586073056,12046.791566848755
-35.33417082528708,130.75155737116458,12047.112768173218
-35.322812834606935,130.7491362993812,12047.433242797852
-35.311477394537,130.7468197342935,12047.755897521973
-35.30012316229189,130.74436382694492,12048.077098846436
-35.288780205351884,130.74197759072678,12048.39684677124
-35.2774297315418,130.73962619007386,12048.718774795532
-35.26609429147187,130.73723995385572,12049.039249420166
-35.25475133453187,130.73483629985495,12049.361177444458
-35.24340086072179,130.73246748141943,12049.68237876892
-35.23205790378179,130.73006382741866,12050.005760192871
-35.22072246371185,130.72772984454838,12050.324781417847
-35.20938326520689,130.72536102611284,12050.649616241455
-35.19804782513695,130.7229573721121,12050.96936416626
-35.18671614350206,130.72062338924178,12051.290565490723
-35.175380703432126,130.71825457080627,12051.613946914673
-35.16404902179723,130.71588575237072,12051.934421539307
-35.15271734016233,130.71358660506564,12052.257802963257
-35.141389416962475,130.71121778663013,12052.577550888062
-35.130050218457505,130.7088489681946,12052.900932312012
-35.11872229525765,130.7065149853243,12053.222860336304
-35.1074056473629,130.70414616688876,12053.544061660767
-35.096073965728,130.70181218401848,12053.867443084717
-35.08474228409311,130.69947820114817,12054.18791770935
-35.07342939463339,130.69712680049525,12054.512752532959
-35.062093954563466,130.69481023540757,12054.833227157593
-35.05078106510375,130.6924936703199,12055.155881881714
-35.03945690033893,130.6901771052322,12055.477809906006
-35.02814401087922,130.6878431223619,12055.800464630127
-35.0168311214195,130.68554397505682,12056.12093925476
-35.00551823195979,130.6831751566213,12056.44504737854
-34.99419782563,130.68091084488145,12056.767702102661
-34.982884936170294,130.67861169757637,12057.090356826782
-34.97157204671058,130.6762777147061,12057.410831451416
-34.9602629156859,130.67399598518364,12057.733486175537
-34.948950026226186,130.67164458453072,12058.057594299316
-34.93764841207158,130.6694151083561,12058.380249023438
-34.92633928104691,130.6670637077032,12058.70217704773
-34.91503390845727,130.66479939596334,12059.02483177185
-34.90372853586763,130.66246541309303,12059.3482131958
-34.89243068014806,130.66023593691844,12059.669414520264
-34.88112530755842,130.65791937183073,12059.994976043701
-34.869823693403816,130.65563764230828,12060.314723968506
-34.85852207924921,130.65339074835106,12060.640285491943
-34.847235498834756,130.6511264366112,12060.962213516235
-34.83592260937504,130.64886212487136,12061.284868240356
-34.82463602896058,130.6465629775663,12061.608249664307
-34.81334193167605,130.64433350139169,12061.931631088257
-34.80204407595649,130.64199951852137,12062.255739212036
-34.79076125397707,130.63978746012938,12062.576940536499
-34.77945963982246,130.63755798395476,12062.901048660278
-34.768176817843035,130.63531108999754,12063.225156784058
-34.75688272055851,130.63297710712723,12063.547811508179
-34.74560741544916,130.63081730208307,12063.871919631958
-34.7343208350347,130.62851815477802,12064.19384765625
-34.723034254620245,130.62632351416863,12064.518682479858
-34.71174767420578,130.62407662021138,12064.842790603638
-34.70047236909644,130.62184714403676,12065.1639919281
-34.68919706398709,130.61963508564477,12065.489553451538
-34.6779180004427,130.61735335612232,12065.812934875488
-34.666638936898316,130.61517613329553,12066.137769699097
-34.65535987335393,130.6129292393383,12066.460424423218
-34.64409208511466,130.6106823453811,12066.784532546997
-34.632809263135236,130.6084877047717,12067.109367370605
-34.62155275020107,130.60625822859708,12067.432022094727
-34.61027744509172,130.6040461702051,12067.755403518677
-34.59900589841741,130.6018515295957,12068.079511642456
-34.587734351743094,130.5996394712037,12068.403619766235
-34.57646656350382,130.59747966615953,12068.727727890015
-34.565210050569654,130.59526760776754,12069.051836013794
-34.55394226233038,130.59309038494078,12069.375944137573
-34.54268950783125,130.590913162114,12069.700052261353
-34.53142547802701,130.588701103722,12070.02561378479
-34.52016520665781,130.58654129867784,12070.347541809082
-34.50890869372364,130.58438149363369,12070.67310333252
-34.49764842235444,130.5822042708069,12070.998664855957
-34.48639190942027,130.5799922124149,12071.31986618042
-34.47514291335618,130.57783240737075,12071.647607803345
-34.46388264198698,130.57563776676136,12071.970262527466
-34.45264116279295,130.5734953794998,12072.295824050903
-34.441388408293825,130.5712833211078,12072.619205474854
-34.43013941222973,130.56919318719412,12072.944040298462
-34.41889417460067,130.56698112880213,12073.267421722412
-34.40764517853658,130.5648909948884,12073.595163345337
-34.39639994090752,130.56274860762687,12073.919271469116
-34.38516222014854,130.56053654923485,12074.242652893066
-34.37392449938955,130.55842899753856,12074.568941116333
-34.36268302019553,130.55630402805963,12074.893049240112
-34.35144529943655,130.5541790585807,12075.217157363892
-34.34021509554764,130.55201925353654,12075.544898986816
-34.32897737478866,130.54985944849238,12075.867553710938
-34.31773965402967,130.54773447901346,12076.193841934204
-34.30650945014076,130.54567918066496,12076.517223358154
-34.295264212511704,130.54353679340343,12076.84351158142
-34.284037767057825,130.54139440614188,12077.169073104858
-34.27281883847402,130.5393391077934,12077.493907928467
-34.26159239302015,130.53717930274925,12077.818742752075
-34.25036218913124,130.5350194977051,12078.143577575684
-34.2391395021124,130.53298161713923,12078.46986579895
-34.2279205735286,130.53090890100816,12078.794700622559
-34.216690369639686,130.52878393152923,12079.120988845825
-34.205471441055884,130.5266763798329,12079.445823669434
-34.19425627090712,130.52456882813658,12079.771385192871
-34.18304861762843,130.52247869422288,12080.096946716309
-34.17182968904463,130.52042339587442,12080.420328140259
-34.16061451889586,130.51833326196072,12080.748069763184
-34.14940310718213,130.51627796361223,12081.07508468628
-34.138180420163295,130.51418782969853,12081.39846611023
-34.1269727668846,130.51209769578483,12081.726207733154
-34.115768872040945,130.5100772330016,12082.050315856934
-34.10456121876225,130.50795226352267,12082.3766040802
-34.093357323918596,130.50594921852203,12082.703619003296
-34.08215718750998,130.5039287557388,12083.027727127075
-34.07095705110136,130.50182120404247,12083.354015350342
-34.05976443156281,130.4997833234766,12083.67957687378
-34.048549261414045,130.4976931895629,12084.007318496704
-34.03736040031053,130.4957075623449,12084.331426620483
-34.026160263901915,130.49361742843118,12084.660621643066
-34.01496388592833,130.49159696564794,12084.986909866333
-34.00377502482482,130.4895939206473,12085.311017990112
-33.99258616372131,130.48757345786407,12085.638032913208
