Latitude,Longitude,Altitude (m)
22.903761348415774,120.27313302539382,10.624467856347561
22.903765694738002,120.2731331174286,10.568661571979522
22.903769976021145,120.27313321457981,10.512857737243175
22.903774193292143,120.27313331654291,10.457057576954364
22.903778344668282,120.27313342350061,10.401259866297245
22.903782430320714,120.27313353508747,10.345467054903507
22.903786448366734,120.2731336515471,10.289676693141459
22.903790399490962,120.27313377263589,10.23389000582695
22.903794282152997,120.27313389859746,10.17810576814413
22.903798096523996,120.27313402918818,10.122324592500924
22.903801841405873,120.27313416422533,10.066547091305255
22.90380551577169,120.27313430395253,10.0107726521492
22.903809119279142,120.27313444806525,9.95500188744068
22.903812651757068,120.27313459668528,9.89923295995593
22.90381611234969,120.27313474981266,9.843467706918716
22.903819500201237,120.2731349070819,9.787705515921115
22.90382281514055,120.27313506891937,9.731946386963129
22.903826055113765,120.27313523502055,9.676189707636832
22.9038292208055,120.27313540520268,9.620434865534305
22.90383231135998,120.27313557983122,9.564683697879314
22.903835325579116,120.27313575829709,9.508936204671858
22.903838263291753,120.27313594102665,9.453191161096095
22.903841123984428,120.27313612783718,9.397445505112408
22.90384390628789,120.27313631860683,9.34170597320795
22.903846610544452,120.27313651345744,9.285968278527259
22.903849235042564,120.27313671190176,9.230232421070337
22.903851780124533,120.2731369143661,9.17449778842926
22.903854244249963,120.2731371207896,9.118766217827796
22.903856627590002,120.27313733086767,9.063037096858023
22.903858929117728,120.27313754472218,9.007309200704098
22.903861148148508,120.27313776217035,8.951583141773938
22.90386328365542,120.27313798327312,8.895859532475471
22.903865335638454,120.27313820790864,8.840137147992849
22.903867303584146,120.27313843619878,8.784417213141918
22.90386918612326,120.27313866796077,8.728696665883064
22.90387098308463,120.27313890301188,8.672978568255902
22.90387269344133,120.27313914159578,8.617262920260428
22.903874316851045,120.27313938352972,8.561547272264956
22.903875853313778,120.27313962869188,8.505834073901175
22.90387730077566,120.27313987708226,8.450117201089858
22.90387865940785,120.27314012876177,8.394406452357769
22.903879928696885,120.27314038360859,8.338693253993988
22.90388110795813,120.27314064144001,8.282981892853975
22.903882196164666,120.27314090243873,8.227270531713962
22.90388319280302,120.27314116636111,8.171559782981872
22.903884097359725,120.27314143314626,8.115849034249782
22.90388490846554,120.27314170303782,8.060138285517692
22.903885627147393,120.27314197567033,8.004428149193524
22.90388625186489,120.2731422511656,7.9487180128693575
22.903886781419942,120.27314252927998,7.8930072641372675
22.903887215641394,120.27314281019622,7.8372965154051775
22.903887553673464,120.2731430938534,7.781583317041396
22.903887795516155,120.2731433800079,7.725870731085538
22.903887939800224,120.27314366884242,7.6701581451296805
22.903887986696823,120.27314396011334,7.614443721950054
22.903887934494403,120.27314425363792,7.558727461546659
22.903887783706427,120.27314454978162,7.503011813551187
22.903887532792496,120.27314484823991,7.447294940739869
22.903887181410298,120.27314514907367,7.391576230704784
22.90388672887521,120.27314545210018,7.3358544586300845
22.903886174844924,120.27314575738036,7.280134523779154
22.90388551829251,120.27314606473149,7.224412139296531
22.903884759046804,120.27314637415354,7.16868546795845
22.90388389573857,120.27314668570743,7.112958184212446
22.90388292853896,120.27314699921045,7.057230288058519
22.90388185607873,120.2731473147844,7.001499329864978
22.90388067870019,120.27314763212473,6.945765309631824
22.9038793950341,120.27314795141417,6.890029452174901
22.90387800422468,120.27314827247001,6.834292982310056
22.90387650627193,120.2731485951095,6.778552837997674
22.90387489997776,120.27314891969812,6.722809631645679
22.903873185342174,120.27314924574856,6.667065200477838
22.90387136133824,120.27314957332175,6.611317094862461
22.90386942728133,120.27314990260041,6.555567152023315
22.90386738300029,120.27315023315818,6.499814147144556
22.90386522746819,120.2731505652387,6.444059917449951
22.903862960000406,120.27315089878105,6.388300788491964
22.90386057991232,120.27315123360252,6.332539822310209
22.903858087203925,120.27315156970309,6.276775181680917
22.903855480505985,120.27315190690003,6.22100931623578
22.90385275930503,120.27315224531517,6.165237939119338
22.903849923772214,120.2731525848876,6.109465949594974
22.903846972367138,120.27315292543459,6.053691510438918
22.90384390474749,120.27315326707796,5.997912172019482
22.903840720057495,120.27315360963496,5.942131608784198
22.903837418126,120.27315395304471,5.886347371101379
22.903833998097223,120.27315429742903,5.830561908602714
22.9038304594577,120.27315464248335,5.77477215924859
22.903826801693963,120.27315498814676,5.71898118507862
22.903823023950235,120.273155334602,5.663187148869037
22.90381912537074,120.27315568166634,5.607389438211918
22.903815105955477,120.27315602927888,5.551591727554798
22.90381096467751,120.2731563775005,5.495789730042219
22.90380670068107,120.27315672608759,5.439987120121717
22.903802314479616,120.27315707510105,5.384182672977447
22.90379780384813,120.27315742435815,5.328376388609409
22.903793169300073,120.2731577739807,5.272568267017602
22.903788410493142,120.27315812372508,5.2167589206099505
22.903783525031155,120.27315847383491,5.160947736978531
22.90377851428336,120.27315882394474,5.105136247143149
22.903773376538197,120.27315917405458,5.049324451103806
22.90376811179567,120.27315952434715,4.9935120426565405
22.903762719028848,120.27315987445698,4.9376984093934295
22.903757197895413,120.2731602245059,4.881885388538241
22.903751547368437,120.27316057425028,4.82607389870286
22.90374576744792,120.27316092399465,4.770261796459556
22.903739857106924,120.27316127325174,4.714451225236058
22.90373381583199,120.2731616222652,4.658643103644252
22.90372764310965,120.27316197079139,4.602834982052445
22.90372133774181,120.2731623189521,4.547030841112137
22.903714900584255,120.27316266662555,4.491227618783712
22.903708329925426,120.27316301362897,4.435428683310747
22.90370162473839,120.27316336002332,4.379633422285318
22.903694785194304,120.27316370568673,4.3238421419113875
22.903687810779697,120.27316405061923,4.268054229781032
22.903680700809954,120.27316439475989,4.212272441729903
22.90367345425814,120.27316473804783,4.156497390165924
22.903666071295408,120.27316508023938,4.10072754406929
22.90365855038136,120.27316542170001,4.044964434459805
22.90365089134484,120.27316576200336,3.9892086737453933
22.903643094014694,120.27316610108852,3.9334633239656682
22.903635157363986,120.2731664391382,3.8777250168770547
22.903627080708098,120.27316677572604,3.821997120723128
22.903618864218185,120.27316711115661,3.7662799417078494
22.903610506525002,120.27316744524715,3.710573173627257
22.903602006943927,120.27316777787586,3.6548795723170038
22.90359336581727,120.27316810879908,3.5991973005533215
22.90358458177579,120.27316843856502,3.5435300327837465
22.903575654306017,120.27316876644277,3.4878783814162015
22.90356658340795,120.27316909267594,3.432240203022957
22.903557368054663,120.27316941714273,3.376620396867394
22.90354800721922,120.27316973984313,3.3210177381336687
22.90353850158624,120.27317006071623,3.2654349826574323
22.903528849786483,120.27317037964022,3.20987090562284
22.903519051135323,120.27317069637145,3.1543285690695044
22.903509105461605,120.2731710112754,3.0988082792013882
22.903499011909556,120.27317132392567,3.043311260834336
22.90348877030802,120.27317163438319,2.9878384325802325
22.90347837997237,120.27317194246523,2.9323931626826525
22.903467840217985,120.27317224835451,2.8769742263257503
22.903457150189094,120.27317255180739,2.821584991753101
22.903446310399158,120.27317285270207,2.7662242341488597
22.90343531947893,120.27317315116035,2.710895321756601
22.903424176914953,120.2731734469386,2.6556010104119774
22.903412882364908,120.2731737399759,2.600339462891221
22.90340143514418,120.27317403033317,2.5451154253557324
22.903389835081605,120.27317431782767,2.489928744703531
22.90337808166372,120.27317460264214,2.434782636076212
22.903366173692444,120.2731748842893,2.379676793269813
22.903354111510076,120.27317516283006,2.3246142783239483
22.903341894260848,120.27317543844714,2.269596469156444
22.903329521431285,120.27317571083601,2.214626427806914
22.90331699250793,120.27317597993574,2.1597044604793187
22.903304307148467,120.27317624574634,2.104832404397428
22.903291464154805,120.27317650814598,2.0500142402127386
22.903278464382726,120.27317676713467,1.995250580333173
22.90326530629183,120.2731770225906,1.940543874390423
22.903251989882115,120.27317727439193,1.8858959596082567
22.90323851446896,120.27317752253867,1.8313111228421328
22.903224879795633,120.273177766909,1.7767893640920518
22.903211085348666,120.27317800744201,1.722332367479801
22.90319713035786,120.2731782441377,1.6679451853707432
22.903183014908794,120.27317847675243,1.6136293487846851
22.903168738231265,120.27317870552984,1.5593859294354915
22.90315430015412,120.27317892992174,1.505219520382583
22.903139699821583,120.27317915017177,1.4511301216259598
22.903124937319227,120.2731793661581,1.3971252351626753
22.903110011962436,120.27317957775894,1.3432021051570773
22.90309492349447,120.27317978497425,1.2893671618923543
22.903079671145136,120.27317998774315,1.2356211708784102
22.903064255000007,120.27318018588291,1.1819687251746653
22.903048674374464,120.2731803793326,1.1284128868207335
22.903032929354083,120.27318056809223,1.0749553399384022
22.903017019168665,120.27318075191816,1.0215992231182753
22.903000943390325,120.27318093093223,0.9683490528687834
22.9029847018479,120.27318110495168,0.9152070491686463
22.902968294455814,120.27318127385469,0.8621755085475742
22.902951720272718,120.2731814377022,0.8092619330026208
22.90293497955534,120.27318159643328,0.7564647915139794
22.90291807161906,120.27318174968246,0.7037884474880993
22.90290099663503,120.2731818976934,0.6512384891472757
22.9028837536619,120.27318204022247,0.5988186674900352
22.9028663429564,120.27318217726963,0.5465311259441077
22.902848764090642,120.2731823087131,0.4943789265491068
22.90283101646558,120.27318243449194,0.44236742787435646
22.90281757391428,120.27317998749952,2.9585460430234667
22.902798129111492,120.27318153771618,5.106643383041024
22.902768055211162,120.27318544033227,6.74435414236784
22.902732060871667,120.27318881485995,9.48191676712036
22.90269046803646,120.27319407686214,11.93073763000965
22.90264792477488,120.27319948407342,14.088963584661483
22.902608991353503,120.2732042446657,15.591899589002132
22.902576899701234,120.27320705382813,17.253312065958976
22.90254966287412,120.27320942224685,19.01924052864313
22.90251963475788,120.2732136274631,19.10674994635582
22.902498593202843,120.2732142054976,19.729309142827987
22.90249311472991,120.27321218182864,20.583843561172483
22.902498176695985,120.27320896603204,20.19742885971069
22.902516367742102,120.27319949509811,20.183834628641605
22.902543251047575,120.2731833207303,20.30736588037014
22.902571011268144,120.27316023534786,20.39795938438177
22.902598132736465,120.2731318427072,20.476443134129045
22.902626594865648,120.27310007301111,20.549583012342453
22.90265584756199,120.27306706873321,20.40668374764919
22.90268048838838,120.27303679821134,20.32854294633865
22.902691563517102,120.2730148071962,20.274283604383466
22.902682012955808,120.2730031739625,20.008101725578307
22.902658746080025,120.27299362128753,19.813357230961323
22.902630830963748,120.2729769868067,19.644521265923977
22.902604844427408,120.27295004123187,19.947071601629254
22.902578110968555,120.27292152095461,20.09810609316826
22.902550578042465,120.27289914194372,20.19270474499464
22.902525204328317,120.27288550383174,20.11071679711342
22.902507640952127,120.27287751958549,20.091839935302733
22.90250181905573,120.27287317723072,20.094077673852443
22.902509350324685,120.27287193530927,20.026010982871053
22.90252958299893,120.27287002535901,19.97767974960804
22.90255963310865,120.27286277787834,19.935325617671012
22.902597344394326,120.27284754050204,20.219454723060128
22.90263700779382,120.27282794158434,20.401968206644057
22.902675552178795,120.27280697912346,20.54832635128498
22.902710533277858,120.27278668618368,20.37518760818243
22.90274130703294,120.27277029809842,20.300630618035793
22.902765215228303,120.27276321805894,20.26257926416397
22.90277850083003,120.27276866117658,19.98994260585308
22.902784686731344,120.27278425166254,19.782534740209577
22.90278776675976,120.27280811694996,19.594385878920555
22.902791808254083,120.27283957125483,19.909758811712265
22.90279566327451,120.27287856982363,20.082756700992583
22.902800179211816,120.27292213309863,20.201313975572585
22.902807371678502,120.2729682857733,20.232932596623897
22.902817174950858,120.27301542348211,20.293569554686545
22.902827898526226,120.27306228813204,20.363778448581694
22.902837320378598,120.2731070312309,20.20083752220869
22.90284674411368,120.27314480042567,20.107865425825118
22.902855951679395,120.27317106158694,20.04701412498951
22.902860625849943,120.27318458326974,19.348896039009094
22.90286237112236,120.27318969744371,18.82338880050182
22.902862958699117,120.2731948586401,18.358718165040013
22.90286553844007,120.27320261898173,18.62916240298748
22.902867533941798,120.27321273001732,18.68484008169174
22.902868328017643,120.2732218359185,18.65088328719139
22.902869274336283,120.2732296707529,18.631373195588587
22.902870532671365,120.27323711089143,18.61933203101158
22.90287190319886,120.27324449633291,18.60940979784727
22.902873317713315,120.27325165939253,18.599154414772986
22.902874720589196,120.27325847209866,18.5887643019557
22.902876068695324,120.27326494919151,18.57849667072296
22.902877349965237,120.27327112587697,18.568339272916315
22.90287857150189,120.27327700970785,18.558238216638564
22.902879729368706,120.2732825972123,18.54819717633724
22.90288081791755,120.27328788985214,18.538206353485585
22.90288183098683,120.27329289213473,18.528266972899434
22.902882766864987,120.27329760887191,18.518372910499572
22.902883625552022,120.2733020442056,18.508505794048308
22.902884408246027,120.2733062021558,18.4986643987298
22.902885116829708,120.27331008710803,18.488832801938056
22.90288575130307,120.27331370350872,18.479017127752304
22.902886317057504,120.27331705671794,18.469199003934857
22.902886815547838,120.27332015039029,18.459385779380796
22.902887248742353,120.27332298964217,18.44956643074751
22.9028876141593,120.27332557733637,18.439755655825138
22.902887911884257,120.27332791761474,18.42997305166721
22.90288814345762,120.27333001480187,18.420201470851897
22.9028883076813,120.2733318726133,18.410453161537646
22.902888405924546,120.27333349482541,18.40072444927692
22.902888437759465,120.27333488588464,18.391026357412336
22.902888410545742,120.27333605066376,18.381329490363598
22.902888326337248,120.2733369936701,18.371630173683165
22.902888188214778,120.27333771977645,18.361919833660124
22.902887997889884,120.27333823282014,18.35219969511032
22.902887758956837,120.27333853718667,18.34246240913868
22.90288747381181,120.27333863774885,18.332703076481817
22.902887143481735,120.27333853810033,18.322914348244666
22.902886770533947,120.27333824262664,18.313103573322294
22.902886357193463,120.27333775583509,18.303254829108713
22.902885901492002,120.27333708125846,18.293399960815904
22.902885403857447,120.2733362228559,18.28354386770725
22.902884865573466,120.273335184282,18.273698797941208
22.902884292630503,120.273333970775,18.263863526701925
22.902883687167996,120.27333258696406,18.2540270306468
22.902883051325393,120.27333103662556,18.24420033311844
22.902882387070978,120.27332932463233,18.234369961142537
22.902881696373043,120.27332745482167,18.224551837325095
22.90288098137103,120.27332543176182,18.214732488691805
22.90288024369092,120.27332325959463,18.2049180393219
22.902879485643304,120.27332094258384,18.19511216366291
22.902878708854164,120.27331848523673,18.185308737635612
22.90287791546294,120.27331589169519,18.175512660503387
22.90287710726677,120.27331316610109,18.165723932266236
22.902876286576248,120.27331031296177,18.15593765366077
22.902875454589466,120.27330733666271,18.146156274318695
22.902874613873756,120.2733042413458,18.136384693503377
22.902873765883935,120.27330103127474,18.12661923676729
22.902872912930608,120.27329771107865,18.116861128926278
22.902872056468592,120.27329428483851,18.10711404442787
22.90287119872291,120.2732907567571,18.097374308824538
22.902870341148382,120.27328713146358,18.087639472484586
22.90286948605561,120.27328341309978,18.077918109118936
22.90286863472826,120.27327960611215,18.068205319464205
22.902867789220196,120.27327571458164,18.058503553152082
22.902866951414126,120.27327174313741,18.04881281018257
22.9028661234495,120.27326769604315,18.039134315371513
22.902865306267664,120.27326357768436,18.02946806871891
22.90286450235038,120.27325939226381,18.01981162059307
22.90286371306689,120.27325514422795,18.01017476952076
22.902862940385482,120.27325083808407,18.000547716975213
22.90286218627444,120.27324647797407,17.990940261483193
22.90286145184628,120.27324206834436,17.981348728597162
22.90286073949718,120.27323761351953,17.97177434313297
22.902860050596377,120.27323311788511,17.962218329906463
22.902859386855432,120.27322858594842,17.952681913733482
22.90285875015705,120.27322402197314,17.943162644982337
22.902858141870478,120.27321943034478,17.933667872548103
22.902857563878428,120.27321481544887,17.924192697167395
22.90285701789245,120.27321018167089,17.914743242919442
22.90285650528179,120.27320553339638,17.905314610540866
22.902856028271472,120.27320087501083,17.895914148926735
22.90285558805958,120.27319621089974,17.886536958813664
22.902855186528825,120.27319154544865,17.877191613912583
22.902854825048454,120.27318688310396,17.867873214960095
22.902854505244445,120.27318222812936,17.858581761956213
22.90285422908508,120.27317758491036,17.84932092934847
22.902853998025183,120.27317295807612,17.840089492321013
22.902853813434,120.27316835195121,17.830897249400614
22.902853676937504,120.27316377073845,17.821734402060507
22.90285766973809,120.27315738257398,19.005293550610542
22.90286034926269,120.27314995547016,19.844554515361786
22.902860867264746,120.27313708996921,20.53015743303299
22.9028582940277,120.27311839429895,20.20721881276369
22.902856971167004,120.2730945970326,20.207885112583636
22.902856636386886,120.27307131332768,20.32056817036867
22.902854025153324,120.27305077769259,20.226725229918955
22.902850877518492,120.27303099371554,20.178923117101192
22.902848644452963,120.27301053942554,20.149947648644446
22.902847217615314,120.27298953901783,20.131528867959975
22.902846088759354,120.27296907948958,20.107843379139897
22.90284496906021,120.27294993183777,20.082544807851313
22.902843975417078,120.27293211348258,20.110256266355513
22.90284311681562,120.27291475417451,20.12410280948877
22.902842571514263,120.27289669769225,20.133009670317172
22.902842309475226,120.2728775267424,20.1018148355484
22.90284201175027,120.27285734642494,20.082783646941184
22.90284099808195,120.27283638828865,20.068182617247103
22.902838891500316,120.27281468522486,20.075358813285828
22.9028364730734,120.27279298097334,20.074500217378137
22.90283548499282,120.27277216923387,20.070226834893226
22.902836852182787,120.2727533334405,20.075275525808333
22.90283717951764,120.2727392728121,20.07910797458887
22.902831265154493,120.27273304901287,20.08590692734718
22.902815689064568,120.2727355405761,20.037284187912938
22.90279435188123,120.27274180486515,20.007553008079526
22.902773145203945,120.27274656353877,19.979943209290504
22.902756197559594,120.27274793111724,20.08237700808048
22.902741602104985,120.27274826053295,20.143327518999577
22.902726530581415,120.27274908322711,20.190921413123608
22.90270921392585,120.27275029862231,20.12606863892078
