Latitude,Longitude,Altitude (m)
22.905041746661244,120.27392028737465,9.399253549575805
22.905035699043406,120.27392218084933,9.398580350875854
22.905029638360627,120.27392406183573,9.397907028198242
22.905023563990763,120.27392592995918,9.39723370552063
22.90501747572643,120.27392778571922,9.396560506820679
22.905011375434057,120.27392962811679,9.395887060165405
22.905005260832457,120.27393145815095,9.395213861465454
22.904999133788053,120.27393327494752,9.394540910720824
22.90499299347132,120.27393507875628,9.39386746406555
22.904986840297028,120.2739368697021,9.393194389343261
22.904980675094688,120.27393864728543,9.392521314620971
22.904974497034782,120.27394041125653,9.391848239898682
22.904968306324694,120.27394216211493,9.391175413131714
22.904962103793938,120.27394389923622,9.390502214431763
22.90495588819824,120.27394562336967,9.389829387664795
22.904949660781877,120.27394733339136,9.389156684875488
22.904943421130092,120.27394903005057,9.388483610153198
22.90493717027978,120.27395071259802,9.38781090736389
22.904930906986664,120.27395238178299,9.387137956619263
22.904924632080263,120.27395403648156,9.386465129852294
22.904918345767957,120.27395567769275,9.38579267501831
22.904912047427608,120.27395730441754,9.385119848251342
22.904905738510873,120.27395891740521,9.384447269439697
22.904899417773475,120.27396051565668,9.383774814605712
22.904893086252315,120.2739620997964,9.383101987838744
22.90488674353263,120.2739636694497,9.382429780960083
22.9048803898218,120.27396522461657,9.381757078170775
22.904874025119824,120.27396676529703,9.381084623336791
22.904867650256225,120.27396829111643,9.38041254043579
22.904861264194103,120.27396980257429,9.379739961624145
22.904854868177736,120.27397129879644,9.379067754745483
22.904848461792366,120.27397278040728,9.3783952999115
22.904842044830612,120.27397424678242,9.377723217010498
22.904835618329376,120.27397569842135,9.377051258087159
22.90482918083699,120.27397713507435,9.376378927230835
22.904822733805126,120.2739785559921,9.375706968307494
22.904816276819016,120.27397996179901,9.375035009384154
22.904809810708183,120.27398135212046,9.374362802505493
22.904803334228347,120.27398272745594,9.373691091537475
22.904796848831168,120.2739840869313,9.373019132614136
22.904790353894505,120.27398543054653,9.372347421646118
22.904783849625737,120.27398675867629,9.371675462722777
22.904777336647008,120.27398807107078,9.37100375175476
22.904770813921413,120.27398936773004,9.370331916809082
22.904764282900615,120.27399064802962,9.369660577774047
22.904757742132954,120.27399191259397,9.36898886680603
22.90475119369223,120.27399316092354,9.368317155838012
22.904744636126786,120.27399439314321,9.367645692825317
22.904738069643994,120.27399560900324,9.366974105834961
22.90473149548814,120.27399680850358,9.366303014755248
22.904724913037086,120.27399799176915,9.365631551742553
22.904718321876064,120.27399915817553,9.364960088729857
22.9047117228346,120.27400030822226,9.364288873672486
22.904705116120077,120.27400144165954,9.363617906570434
22.904698501525107,120.27400255836253,9.362946567535399
22.90469187946446,120.27400365783167,9.362275476455688
22.904685249108603,120.2740047405665,9.361604509353636
22.904678611701826,120.27400580619236,9.360933542251587
22.904671966829365,120.27400685495904,9.360262327194214
22.9046653146986,120.27400788649187,9.359591608047484
22.904658655102157,120.2740089005411,9.358920888900757
22.90465198866217,120.27400989785603,9.358249921798706
22.90464531496388,120.27401087693804,9.357579326629638
22.904638634836804,120.27401183903598,9.356908607482909
22.90463194786619,120.27401278352544,9.35623776435852
22.90462525384465,120.27401371053126,9.355567541122436
22.90461855380909,120.2740146194291,9.354896945953369
22.90461184692999,120.27401551046866,9.354226350784302
22.90460513445162,120.27401638364996,9.353555879592895
22.904598414922333,120.27401723897302,9.352885656356811
22.904591690001165,120.27401807593827,9.352215433120728
22.90458495906597,120.27401889504527,9.35154496192932
22.90457822190938,120.27401969604426,9.350874738693237
22.90457147894614,120.27402047831082,9.350204887390136
22.904564730591023,120.2740212427191,9.349534540176391
22.90455797684402,120.2740219881452,9.348864440917968
22.904551216875618,120.27402271483885,9.348194589614868
22.90454445234485,120.2740234232996,9.347524614334105
22.904537682422205,120.27402411290302,9.346854763031006
22.904530907315056,120.2740247838989,9.346184911727905
22.904524127852927,120.27402543553792,9.345515184402466
22.904517342584153,120.27402606831963,9.344845457077026
22.9045105529604,120.27402668224401,9.344175729751587
22.90450375835952,120.2740272771862,9.34350637435913
22.904496959818424,120.27402785239688,9.342836399078369
22.904490156507585,120.27402840850048,9.342167167663574
22.904483348841765,120.27402894537211,9.341497812271118
22.90447653682096,120.27402946251225,9.340827960968017
22.90446972106732,120.27402996029552,9.340159101486206
22.90446290033655,120.27403043822243,9.339489622116089
22.904456076702463,120.27403089691735,9.338820390701294
22.904449249335535,120.27403133513148,9.33815140724182
22.904442418235764,120.27403175361411,9.337482051849365
22.904435582988395,120.27403215249012,9.336813068389892
22.904428744837702,120.27403253101022,9.336144332885741
22.904421902954166,120.27403288942418,9.335475101470946
22.904415058167313,120.27403322760709,9.334806241989135
22.904408209440234,120.27403354543411,9.334137382507324
22.904401358639358,120.2740338429052,9.333468523025513
22.9043945045204,120.27403411989549,9.332800035476684
22.9043876477055,120.27403437665475,9.332131299972534
22.9043807877799,120.27403461218393,9.331462564468383
22.904373925987876,120.27403482710741,9.330794324874878
22.904367061085154,120.2740350215501,9.330125341415405
22.904360194316013,120.27403519476269,9.329457101821898
22.904353324850927,120.27403534724473,9.328788738250733
22.904346453519423,120.27403547837179,9.328120374679566
22.904339579906736,120.27403558864339,9.327452135086059
22.904332704427627,120.27403567793468,9.326783895492554
22.9043258270821,120.27403574537145,9.326115531921387
22.904318948284914,120.27403579157813,9.325447540283204
22.904312067828684,120.27403581630495,9.324779300689697
22.904305185506036,120.27403581905236,9.324111433029174
22.904298302353865,120.27403580081946,9.32344331741333
22.904291417127897,120.27403576048228,9.322775449752807
22.904284531487164,120.27403569866523,9.322107706069946
22.904277644187395,120.27403561474392,9.321439714431762
22.904270756058104,120.27403550859344,9.3207719707489
22.90426386730667,120.27403538071334,9.32010422706604
22.90425697772572,120.27403523060408,9.319436483383178
22.904250087730006,120.27403505851544,9.31876898765564
22.904243197112155,120.27403486357322,9.318101367950439
22.90423630566478,120.27403464652672,9.317433996200561
22.90422941401003,120.27403440712618,9.316766624450683
22.904222522562655,120.2740341446223,9.316099128723144
22.904215630700524,120.27403386001416,9.315431756973267
22.90420873904577,120.27403355242754,9.314764385223388
22.90420184739102,120.27403322186248,9.31409713745117
22.904194955736266,120.2740328688185,9.313430013656616
22.904188064703654,120.27403249254628,9.312762765884399
22.9041811740858,120.27403209292098,9.312095766067504
22.904174283882707,120.27403167044208,9.31142876625061
22.904167394716517,120.27403122485987,9.310761518478394
22.904160506172467,120.27403075579966,9.310094518661499
22.904153618043175,120.27403026326147,9.309427766799926
22.904146731572922,120.27402974699551,9.308760766983031
22.904139845724814,120.27402920750134,9.30809413909912
22.904132961743123,120.27402864402966,9.307427139282225
22.904126078383573,120.27402805707997,9.306760387420654
22.904119196475683,120.27402744615277,9.306093635559082
22.904112316434215,120.27402681149783,9.30542700767517
22.904105438051786,120.27402615261559,9.30476050376892
22.90409856112102,120.27402546975584,9.304093751907349
22.904091686367742,120.2740247626688,9.30342737197876
22.9040848133772,120.27402403160426,9.302761116027831
22.904077942356764,120.27402327581288,9.30209436416626
22.90407107341013,120.27402249579423,9.301428232192993
22.904064207263126,120.27402169104876,9.300761852264404
22.904057343086233,120.27402086170135,9.300095472335816
22.904050481397903,120.27402000762713,9.299429464340209
22.904043622716582,120.27401912920074,9.29876308441162
22.90403676631644,120.274018225548,9.298096952438353
22.904029913027003,120.27401729691869,9.297430820465088
22.904023062433506,120.27401634356255,9.296764688491821
22.904016214950712,120.27401536485517,9.296098680496215
22.904009370785996,120.27401436117123,9.29543254852295
22.904002529939362,120.27401333213605,9.294766788482665
22.90399569220343,120.27401227774965,9.294100904464722
22.903988857785578,120.27401119763735,9.293434648513793
22.90398202751533,120.27401009217384,9.29276888847351
22.90397520066685,120.2740089612342,9.29210350036621
22.903968377343833,120.27400780431893,9.291437368392945
22.90396155816842,120.27400662192753,9.29077160835266
22.903954743140602,120.27400541331073,9.290105848312377
22.9039479321567,120.27400417921781,9.289440088272094
22.90394112552778,120.27400291864971,9.288774576187134
22.903934322631702,120.27400163185621,9.28810881614685
22.903927524712742,120.27400031921195,9.28744330406189
22.903920731459838,120.27399898021739,9.286777791976927
22.903913942458225,120.27399761474764,9.286112279891967
22.90390715864111,120.27399622255297,9.285446891784668
22.90390037949005,120.27399480425775,9.284781255722045
22.903893605212424,120.27399335886295,9.284115991592406
22.903886836119295,120.27399188699297,9.283450603485107
22.90388007241805,120.27399038827318,9.282784843444825
22.903873313901308,120.27398886282843,9.282119703292846
22.903866560672757,120.27398731003433,9.28145468711853
22.90385981293978,120.27398573064016,9.280789175033568
22.903853070909754,120.27398412364688,9.28012378692627
22.90384633479006,120.27398248967889,9.27945852279663
22.903839604477007,120.27398082823665,9.278793258666992
22.903832879970597,120.27397913944506,9.278128490447997
22.90382616168559,120.27397742305435,9.277462854385375
22.903819449414605,120.27397567931428,9.27679796218872
22.903812743572402,120.27397390760042,9.276132698059081
22.90380604415898,120.27397210853722,9.275467681884765
22.90379935138172,120.27397028137537,9.274802541732788
22.90379266482587,120.27396842623973,9.274137525558471
22.903785985113554,120.27396654325523,9.273472261428832
22.903779312244783,120.2739646317974,9.272807493209838
22.903772646426937,120.27396269261557,9.272142229080199
22.90376598745263,120.27396072496045,9.271477336883544
22.903759335736627,120.2739587289569,9.270812320709227
22.903752691278928,120.27395670460493,9.270147304534913
22.90374605407953,120.27395465165476,9.269482536315918
22.903739424656887,120.27395257010642,9.26881739616394
22.903732802492545,120.27395045971012,9.268152503967285
22.903726188104958,120.27394832071565,9.26748761177063
22.90371958180519,120.27394615262344,9.266822719573975
22.90371298297111,120.27394395593305,9.26615795135498
22.90370639222485,120.27394173002007,9.265492811203002
22.903699809773794,120.27393947500936,9.264827919006347
22.90369323541056,120.27393719052628,9.264163336753844
22.90368666934253,120.27393487707037,9.263498010635375
22.903680111984464,120.2739325341421,9.262833304405213
22.9036735629216,120.27393016161658,9.262168474197388
22.903667022672387,120.27392775961869,9.26150327205658
22.90366049113314,120.27392532814844,9.260838689804077
22.903653968511236,120.27392286670627,9.260173983573914
22.903647454806677,120.27392037554199,9.259508781433105
22.90364095033053,120.27391785478045,9.25884401321411
22.903634454668037,120.2739153034226,9.258179244995116
22.903627968545024,120.27391272234262,9.257514414787291
22.9036214919615,120.27391011104096,9.256849336624144
22.903615024917457,120.273907469143,9.25618450641632
22.903608567412896,120.27390479764779,9.255519800186157
22.9036021196552,120.2739020953065,9.25485478401184
22.903595681955437,120.2738993623689,9.254189829826355
22.90358925389885,120.27389659895987,9.253524875640869
22.903582836003885,120.27389380495453,9.252859797477722
22.903576428374237,120.27389098010309,9.252195091247557
22.90357003080252,120.27388812440559,9.25152995109558
22.903563643807185,120.273885237862,9.250865058898926
22.903557267388237,120.27388232022258,9.25020004272461
22.90355090144198,120.27387937148731,9.249535088539123
22.9035445461758,120.27387639153132,9.248870072364806
22.903538201797073,120.2738733802297,9.248205056190491
22.90353186840949,120.27387033770736,9.247539854049682
22.903525546220433,120.27386726371454,9.246874713897705
22.903519234607757,120.27386415800144,9.24620994567871
22.903512934815748,120.27386102081786,9.24554455757141
22.903506646014883,120.27385785178915,9.244879417419433
22.90350036903468,120.27385465091527,9.244214277267456
22.903494103564075,120.27385141832114,9.24354926109314
22.90348784949937,120.273848153757,9.24288387298584
22.903481607566402,120.27384485709794,9.242218298912048
22.903475377350407,120.27384152834398,9.241553220748902
22.903469159369838,120.27383816712045,9.2408878326416
22.903462953313625,120.27383477392691,9.24022238254547
22.903456759492833,120.2738313482638,9.239557056427001
22.90345057811485,120.27382789000626,9.23889154434204
22.903444409179667,120.2738243990294,9.238226156234742
22.90343825289467,120.27382087558297,9.237560520172119
22.90343210905248,120.27381731941722,9.236894884109496
22.903425978275234,120.27381373028238,9.236229434013365
22.903419860148173,120.27381010817847,9.235563735961914
22.903413755086056,120.27380645323034,9.234898161888122
22.903407663296264,120.27380276506335,9.234232463836669
22.903401584571416,120.27379904405217,9.233566455841064
22.903395519015206,120.27379528944748,9.232900943756103
22.903389466938698,120.27379150162393,9.232234811782837
22.903383428756655,120.2737876802069,9.231568803787232
22.90337740384694,120.2737838254461,9.230902919769287
22.903371392727998,120.27377993696693,9.230236911773682
22.903365395814593,120.2737760146445,9.229570779800415
22.90335941258827,120.27377205885344,9.228904523849486
22.903353443463796,120.27376806896935,9.22823826789856
22.903347488648546,120.2737640451171,9.22757201194763
22.90334154793514,120.27375998717183,9.226905694007874
22.90333562194572,120.2737558952584,9.226239376068115
22.903329710161834,120.27375176912705,9.225572810173034
22.903323813309317,120.2737476086529,9.224906306266785
22.903317931180784,120.27374341383596,9.224239678382872
22.90331206356886,120.27373918455133,9.22357286453247
22.903306211095675,120.27373492067413,9.222905988693237
22.90330037386493,120.27373062220437,9.222239298820496
22.90329455177293,120.27372628889228,9.221572546958923
22.903288744819672,120.2737219206754,9.220905485153198
22.903282953316236,120.27371751792842,9.220238361358643
22.90327717746999,120.27371307983955,9.219571361541748
22.903271417177255,120.27370860684593,9.218903989791869
22.903265672541714,120.27370409851044,9.218236804008484
22.90325994377075,120.27369955489552,9.217569246292113
22.903254231071738,120.27369497612607,9.216901750564574
22.903248534133617,120.27369036188986,9.216234378814697
22.90324285357852,120.27368571237425,9.215566449165344
22.903237189199068,120.27368102701722,9.214898705482483
22.903231541410022,120.27367630606858,9.214230961799622
22.903225909692935,120.27367154927853,9.213562970161437
22.9032202950847,120.27366675658466,9.212894854545592
22.903214696963186,120.27366192817426,9.212226676940917
22.903209115743145,120.27365706361027,9.211558437347412
22.903203551424582,120.27365216295512,9.210889825820923
22.903198004111186,120.27364722608391,9.210221710205078
22.903192474114025,120.27364225299668,9.209553160667419
22.90318696122572,120.27363724344362,9.208884363174437
22.903181465653653,120.27363219761209,9.208215565681456
22.90317598781258,120.27362711512741,9.207546768188475
22.90317052728775,120.27362199611449,9.206877536773682
22.9031650845976,120.27361684007379,9.206208491325379
22.90315965984583,120.27361164744238,9.205539321899414
22.903154253032437,120.27360641809541,9.204869842529297
22.90314886415742,120.27360115190798,9.20420036315918
22.903143493428157,120.27359584838055,9.2035307598114
22.903138141155726,120.27359050763803,9.202861094474793
22.90313280702905,120.27358512993015,9.202191181182862
22.903127491462886,120.27357971488229,9.201521205902099
22.903122194457247,120.27357426236956,9.200850858688353
22.9031169162195,120.27356877257928,9.20018063545227
22.90311165674965,120.27356324532413,9.199510226249695
22.903106416151388,120.27355767991723,9.198839755058287
22.903101194735786,120.27355207717036,9.198168973922728
22.903095992399148,120.27354643658397,9.19749819278717
22.903090809348857,120.27354075790828,9.19682716369629
22.903085645792295,120.27353504170529,9.196155948638916
22.90308050152208,120.27352928703834,9.19548460960388
22.90307537695297,120.27352349453189,9.19481339454651
22.90307027208497,120.27351766331174,9.19414168357849
22.903065187021767,120.27351179425206,9.193469848632812
22.903060121867053,120.27350588672843,9.192797951698303
22.903055076828203,120.27349994067845,9.192125992774963
22.903050052112604,120.27349395616451,9.191453537940978
22.90304504740918,120.27348793268712,9.190781269073486
22.903040063132696,120.2734818709331,9.190108690261841
22.903035099386837,120.27347576996586,9.189435739517211
22.90303015637899,120.27346963009758,9.188762912750244
22.903025233694386,120.27346345151561,9.188090147972106
22.90302033226624,120.27345723390773,9.187416701316833
22.903015451576106,120.27345097702417,9.18674319267273
22.90301059214243,120.27344468092738,9.186069622039794
22.90300575365414,120.27343834567979,9.185395803451538
22.903000936525995,120.27343197065701,9.18472186088562
22.902996140861692,120.27342555642099,9.184047546386719
22.902991366557536,120.27341910247219,9.183373355865479
22.902986614028286,120.27341260912284,9.182698545455931
22.90298188327395,120.27340607606074,9.18202404499054
22.902977174087138,120.2733995029112,9.181348986625672
22.902972487089993,120.2733928901738,9.180673742294312
22.902967822075137,120.27338623741142,9.17999843597412
22.90296317945733,120.27337954443674,9.179322943687438
22.902958558821812,120.27337281137464,9.178646955490112
22.90295396079072,120.27336603835002,9.177971215248107
22.90294938515668,120.27335922480088,9.177295041084289
22.902944832438138,120.27335237085214,9.176618309020995
22.902940302220333,120.27334547662865,9.175941824913025
22.90293579491803,120.27333854181822,9.175264968872069
22.902931310531223,120.27333156629595,9.174587740898131
22.90292684937098,120.27332455006186,9.173910760879517
22.902922411333623,120.27331749317838,9.173233098983765
22.902917996626524,120.27331039539575,9.172555189132689
22.90291360545706,120.27330325671396,9.171877217292785
22.90290923772155,120.2732960769457,9.171199121475219
22.902904893938434,120.27328885602851,9.170520529747009
22.902900573692957,120.27328159396242,9.169841814041137
22.9028962771925,120.27327429068497,9.169163036346434
22.902892004851825,120.27326694594638,9.168483824729918
22.902887756878304,120.27325956005888,9.16780424118042
22.902883532960875,120.27325213258536,9.16712471961975
22.902879333306917,120.27324466340094,9.166444826126098
22.902875158020116,120.27323715269297,9.165764560699463
22.902871007722613,120.2732296002741,9.165083985328673
22.902866881895964,120.2732220057697,9.164403409957885
22.90286278074754,120.27321436961684,9.16372221469879
22.902858704692104,120.27320669144089,9.163041019439698
22.90285465383335,120.2731989711794,9.16235951423645
22.902850627963897,120.27319120883236,9.16167776107788
22.902846627394812,120.27318340421245,9.160995759963988
22.902844535966725,120.27317906250198,9.72924910545349
22.902841711138993,120.27317429606474,10.09828646659851
22.902834754574275,120.27316223977493,10.183479948043823
22.90282432719288,120.27313463949666,10.067171669006347
