Latitude,Longitude,Altitude (m)
22.904518740668124,120.2749363761954,18.65391687732935
22.904520645404,120.27493866657403,18.65626758617163
22.904522536929935,120.27494094230534,18.65861946743727
22.904524414107154,120.27494320200168,18.660974865973
22.90452627670789,120.2749454470507,18.66332440239191
22.904528126098693,120.27494767637312,18.665676283657554
22.904529961140774,120.27494989012312,18.6680310959816
22.904531781606376,120.27495208922582,18.670383563458923
22.904533587723257,120.2749542716768,18.672732513666155
22.90453537926366,120.27495643855538,18.675086153566838
22.904537156227583,120.27495859016992,18.67743803483248
22.904538918615025,120.27496072574947,18.679788743674756
22.904540666881505,120.27496284575662,18.682139452517035
22.90454240011599,120.27496494957462,18.684493092417718
22.904544119001752,120.27496703797439,18.686842042624953
22.904545823311036,120.27496910972246,18.689193923890592
22.90454751281608,120.27497116589812,18.691545805156235
22.90454918683362,120.27497320557627,18.693895341575146
22.904550846730192,120.27497522921945,18.696246050417425
22.90455249068374,120.27497723636513,18.698598517894748
22.904554120516327,120.27497922763003,18.70094746810198
22.904555735316915,120.2749812023974,18.703296418309215
22.904557334857756,120.27498316020473,18.705648885786534
22.904558918911086,120.2749851019771,18.70799724978209
22.90456048793242,120.27498702740613,18.710346786201
22.904562041466246,120.27498893556674,18.71269808125496
22.904563579740323,120.27499082707567,18.71504585903883
22.904565102754646,120.27499270254962,18.717395395457746
22.90456661028146,120.27499456106352,18.71974434566498
22.90456810254852,120.274996402309,18.722093882083897
22.904569578872557,120.27499822628606,18.72444283229113
22.904571039709086,120.2750000339198,18.72679119628668
22.904572484147078,120.2750018242851,18.72913956028223
22.904573914464102,120.27500359799872,18.731489096701146
22.904575327927073,120.27500535382718,18.733836288273338
22.904576725447022,120.27500709238723,18.736186410903933
22.904578107023944,120.27500881383303,18.73853301626444
22.904579473568873,120.27501051831877,18.74087962162495
22.90458082371526,120.27501220476518,18.743228571832184
22.90458215746311,120.27501387425154,18.745576935827735
22.904583475267938,120.2750155261611,18.74792295497656
22.904584777129738,120.27501715987715,18.750271905183794
22.904586062137486,120.27501877601642,18.752619096755982
22.90458733142997,120.27502037473309,18.754963943481446
22.90458858432391,120.27502195541041,18.75731289368868
22.90458982104707,120.27502351835678,18.75966008526087
22.904591040916177,120.27502506372635,18.76200317335129
22.904592245297774,120.27502659105659,18.764353882193568
22.90459343145877,120.27502809973076,18.766696970283988
22.90459460213226,120.27502959067397,18.76904181700945
22.90459575572394,120.27503106342365,18.771389594793323
22.904596893144834,120.27503251782565,18.773735027730467
22.90459801348392,120.27503395480504,18.776078702032567
22.904599116741192,120.27503537220328,18.77842589360476
22.904600203599923,120.27503677156217,18.780770740330222
22.904601273149087,120.27503815272756,18.783115000844003
22.9046023258442,120.2750395150827,18.785459847569467
22.904603361685254,120.27504085878176,18.787805280506614
22.904604380216742,120.27504218397897,18.790149541020394
22.904605381894175,120.27504349067428,18.792493801534178
22.904606366262037,120.27504477825099,18.794838648259642
22.90460733332033,120.27504604701744,18.797181736350062
22.904608283069056,120.27504729712784,18.799524824440482
22.904609215280455,120.2750485282738,18.80187084358931
22.9046101306378,120.2750497399928,18.804212173044682
22.904611028002304,120.27505093290155,18.806554674923422
22.90461190782948,120.27505210684586,18.808899521648886
22.90461276989157,120.27505326120902,18.811242609739306
22.904613614644095,120.27505439645358,18.813583352983
22.90461444185929,120.27505551242534,18.815927027285102
22.904615251309405,120.27505660897013,18.818270701587203
22.90461604322219,120.27505768608795,18.820610858619215
22.90461681668662,120.27505874347042,18.822953360497955
22.904617572613724,120.27505978142592,18.825296448588375
22.904618310320227,120.27506079980026,18.827636605620388
22.904619030033892,120.27506179843927,18.82997793507576
22.904619732437983,120.27506277688038,18.8323204369545
22.904620415710447,120.27506373651124,18.834661766409877
22.90462108121783,120.27506467548169,18.837000164806845
22.904621728049094,120.2750655945626,18.839343252897265
22.904622357343033,120.27506649359981,18.841682823717598
22.90462296796086,120.2750673727475,18.844021808326247
22.904623560585843,120.27506823215985,18.846364896416667
22.9046241340792,120.27506907044923,18.848703294813635
22.904624689351955,120.27506988900326,18.851041693210604
22.90462522640411,120.27507068766776,18.853384781301024
22.90462574432464,120.27507146567184,18.855722593486313
22.90462624402457,120.27507222270712,18.858059819459918
22.904626724820627,120.27507295985288,18.860401735126974
22.904627187396084,120.27507367618402,18.862739547312263
22.904627630156643,120.27507437170055,18.865075600862504
22.904628054696598,120.27507504732756,18.86741693031788
22.90462845987717,120.27507570106067,18.86975532871485
22.904628845926112,120.27507633475008,18.872091968476774
22.904629213982215,120.2750769473165,18.874430366873742
22.904629561995655,120.27507753891413,18.87676876527071
22.904629891105227,120.27507810969715,18.879104818820956
22.904630201310926,120.27507865981974,18.88144204479456
22.904630492157235,120.27507918820261,18.883781029403213
22.904630763644164,120.27507969577086,18.886116496741774
22.904631015316188,120.2750801815994,18.888451964080335
22.90463124785658,120.27508064661335,18.890790948688988
22.904631461037592,120.27508109035011,18.893125243604185
22.904631654631455,120.27508151250134,18.895460710942746
22.904631828638177,120.2750819127587,18.897798523128035
22.90463198260224,120.27508229173888,18.900133990466596
22.904632117890188,120.27508264944191,18.902467699170113
22.90463223290772,120.27508298525105,18.904804925143722
22.90463232788259,120.27508329932047,18.90713922005892
22.904632403498077,120.27508359180436,18.909472928762437
22.90463245861539,120.27508386208599,18.911810154736045
22.904632494145556,120.27508411047374,18.914144449651243
22.904632509860825,120.2750843369676,18.916476399719716
22.904632505077917,120.27508454187593,18.91881186705828
22.904632480707864,120.27508472411945,18.92114616197348
22.904632435611884,120.2750848843149,18.923478112041952
22.904632370245483,120.27508502230809,18.92581123453379
22.90463228506418,120.2750851382532,18.92814670187235
22.904632179156952,120.27508523168771,18.930477479517464
22.904632053662574,120.2750853033825,18.932810015797617
22.904631906758997,120.27508535194993,18.935146069347862
22.90463174026827,120.2750853775442,18.93747567456961
22.904631552368343,120.27508538139875,18.9398070384264
22.904631344425756,120.27508536243433,18.942141919553283
22.904631115529483,120.27508532018837,18.94447152477503
22.904630866590548,120.27508525604851,18.946802888631822
22.904630595786895,120.27508516847294,18.94913659733534
22.904630304485067,120.27508505777003,18.951465030133726
22.904629992912824,120.2750849245565,18.95379580777884
22.904629659931377,120.27508476836978,18.956128930270673
22.904629306223995,120.27508458905572,18.95845736306906
22.904628931107414,120.2750843867685,18.960785795867444
22.904628535264898,120.27508416089137,18.9631183321476
22.90462811824094,120.27508391219526,18.965447351157668
22.90462768003553,120.27508363990925,18.967776370167734
22.904627220193163,120.27508334403335,18.970106561601163
22.904626739397106,120.27508302472172,18.972436753034593
22.90462623764736,120.27508268243693,18.974763427197935
22.90462571426065,120.2750823160997,18.977092446208
22.904625169236983,120.27508192648092,18.97942205142975
22.90462460280411,120.27508151280972,18.981749898016457
22.90462401427876,120.2750810755486,18.98407715839148
22.90462340479972,120.27508061438922,18.986406763613225
22.904622773683723,120.27508012963996,18.988732851564887
22.904622120703003,120.2750796203757,18.99106011193991
22.90462144562981,120.27507908813827,18.993389130949975
22.904620748691897,120.27507853107748,18.995715805113317
22.90462003011702,120.27507795027262,18.99803954821825
22.904619289905185,120.27507734479858,19.00036973965168
22.90461852760087,120.27507671542627,19.0026940689683
22.90461774320408,120.2750760612306,19.005018984496594
22.904616936714817,120.27507538344506,19.00734741729498
22.904616108133077,120.27507468099033,19.009671160399915
22.904615256775585,120.27507395355805,19.01199490350485
22.904614383781134,120.27507320207334,19.014323336303235
22.904613488010934,120.27507242591945,19.016647665619853
22.904612570376013,120.27507162478803,19.018969650089744
22.904611630193102,120.27507079944996,19.021295738041403
22.9046106674622,120.275069948826,19.0236206535697
22.904609682866578,120.27506907368706,19.02594322425127
22.904608674811936,120.27506817372475,19.028266967356206
22.90460764443706,120.27506724816817,19.030591882884504
22.904606590603162,120.2750662973257,19.032914453566075
22.904605515132303,120.27506532273914,19.035235851824286
22.904604417113454,120.27506432194158,19.037561353564264
22.90460329495231,120.2750632961665,19.03988216561079
22.904602150926447,120.27506224525968,19.042204736292366
22.90460098389708,120.2750611687586,19.044527306973936
22.904599793636446,120.27506006666324,19.046848705232147
22.904598580600062,120.27505893959035,19.04916893106699
22.904597343876905,120.2750577869232,19.05149326038361
22.904596085061268,120.27505660804503,19.053812900006772
22.90459480187558,120.27505540418935,19.05613195341826
22.904593495914142,120.27505417427683,19.05845452409983
22.9045921669492,120.2750529184617,19.060775922358037
22.904590814297478,120.2750516368981,19.063094975769523
22.904589437958975,120.27505032927769,19.065414029181007
22.904588038616968,120.27504899637138,19.067735427439214
22.904586615588183,120.27504763679153,19.070053894639017
22.904585169328133,120.27504625130904,19.0723729480505
22.904583698698033,120.27504483976973,19.07469376009703
22.904582204836668,120.2750434014027,19.07701164108515
22.904580687516283,120.27504193759559,19.079327763438226
22.904579146053603,120.27504044711493,19.081647989273073
22.904577580904146,120.27503892980654,19.083966456472876
22.904575992523423,120.27503738644134,19.08628199261427
22.90457437886162,120.2750358162484,19.0886028046608
22.90457274151304,120.27503421953611,19.090917754590514
22.904571080705434,120.275032596767,19.09323387694359
22.904569395300022,120.27503094655344,19.095552344143393
22.904567685980076,120.27502926982052,19.097868466496468
22.904565952290074,120.2750275659515,19.100182830214504
22.904564195141056,120.27502583587149,19.102502469837667
22.904562412710952,120.27502407819284,19.104816833555702
22.90456060659407,120.27502229399482,19.10713061106205
22.9045587763349,120.27502048250653,19.109447905838493
22.904556920566886,120.27501864341961,19.11176344197989
22.90455504042882,120.2750167771966,19.114074288427833
22.904553136603976,120.27501488414585,19.116392755627633
22.904551207498052,120.27501296334228,19.118707705557348
22.904549253794322,120.27501101540263,19.121019138216976
22.904547275948293,120.27500903971014,19.123332329511644
22.904545272593428,120.27500703641903,19.12564845186472
22.904543244640756,120.27500500599183,19.127959884524348
22.90454119209027,120.27500294750342,19.130272489607336
22.904539114486465,120.27500086157058,19.13258802574873
22.90453701137382,120.27499874773073,19.134898872196676
22.90453488434664,120.27499660582968,19.13720854622126
22.90453273158286,120.27499443633002,19.139525254786015
22.904530553538002,120.27499223861497,19.1418349288106
22.904528350667576,120.27499001299292,19.1441440166235
22.904526122060556,120.27498775915551,19.14645896655321
22.90452386840021,120.27498547756527,19.148768640577796
22.904521589458785,120.27498316729712,19.151077728390696
22.904519285008522,120.27498082896778,19.153390333473684
22.904516955277174,120.27497846226889,19.155700007498268
22.90451460003699,120.27497606720046,19.158008509099485
22.90451221906021,120.27497364314574,19.16031876933575
22.904509813030106,120.27497119087566,19.162629029572013
22.90450738058013,120.27496871023602,19.16493635874987
22.90450492353235,120.2749662007643,19.167247205197814
22.904502439609185,120.27496366230628,19.16955512058735
22.904499930632696,120.27496109532454,19.171863035976887
22.904497395691855,120.27495849966488,19.174170951366428
22.904494834331143,120.27495587501893,19.176480039179328
22.90449224768935,120.27495322123254,19.17878619593382
22.904489634172176,120.27495053799731,19.181092938899997
22.90448699514616,120.27494782623836,19.183402026712898
22.904484330155793,120.27494508487639,19.18570759725571
22.904481638517797,120.27494231468232,19.18801199537516
22.904478921370963,120.27493951519361,19.19032166939974
22.90447617712099,120.27493668563935,19.192626653730873
22.904473406906664,120.27493382756136,19.194930465638638
22.904470610955737,120.27493093957197,19.197237794816495
22.904467787901673,120.27492802228797,19.199541606724264
22.904464938883255,120.27492507509257,19.201844832420353
22.90446206321721,120.27492209767745,19.204151575386526
22.90445916067578,120.27491909112186,19.206455973505975
22.904456231714484,120.27491605511744,19.2087580267787
22.904453275877803,120.27491298843074,19.211063011109832
22.904450293621256,120.2749098924494,19.21336740922928
22.904447284261565,120.27490676593995,19.215669462502007
22.904444248482005,120.27490360982749,19.217971515774728
22.904441185143792,120.27490042318693,19.220275327682497
22.904438095613465,120.27489720632663,19.22257679474354
22.90443497852448,120.27489395986332,19.224878848016264
22.90443183524339,120.27489068240936,19.227182659924033
22.90442866440364,120.2748873745815,19.22948178213835
22.904425466232993,120.27488403668806,19.231782076776028
22.904422241414718,120.27488066780397,19.23408647489548
22.904418989037787,120.27487726900851,19.236385010898115
22.904415709102203,120.27487383875986,19.238684133112432
22.904412402063475,120.27487037859984,19.240986772596838
22.904409067693848,120.27486688698662,19.24328472238779
22.904405705993323,120.27486336499946,19.24558384460211
22.904402316506385,120.27485981186749,19.247885897874834
22.904398900144063,120.27485622774486,19.250182089030744
22.904395455539813,120.2748526124774,19.252480038821698
22.904391983604665,120.27484896652766,19.25478033345938
22.904388484338618,120.27484528912471,19.257078869462017
22.904384956830643,120.27484158088531,19.259374474406243
22.904381401080737,120.27483784057597,19.2616724241972
22.90437781845545,120.27483406958436,19.263971546411515
22.90437420804375,120.27483026683117,19.26626480650902
22.904370568934606,120.27482643293315,19.268562170088295
22.904366902494562,120.27482256696521,19.27086070609093
22.904363207129318,120.27481866985245,19.273154552400115
22.904359484888687,120.27481474066974,19.275450743556025
22.90435573372286,120.27481078003385,19.2777481071353
22.90435195477062,120.2748067876364,19.28004078102112
22.90434814712093,120.274802763169,19.282334627330304
22.90434431168483,120.27479870647751,19.28463257712126
22.904340448006803,120.27479461833282,19.286922319948676
22.904336555631332,120.27479049796403,19.289216752469542
22.904332634786172,120.27478634521694,19.291512943625452
22.904328685926846,120.27478216055411,19.293803272664547
22.9043247076868,120.27477794320461,19.296096532762053
22.904320701432585,120.27477369409357,19.29839096528292
22.904316666480927,120.27476941245004,19.300681294322015
22.904312602831823,120.27476509765732,19.302972795784477
22.904308511396305,120.2747607512572,19.305264883458616
22.904304389441286,120.27475637170791,19.30755755734444
22.904300239699854,120.27475195962612,19.309846713960173
22.904296061260975,120.27474751532023,19.31213762921095
22.904291853669143,120.27474303740259,19.31442971688509
22.904287617152104,120.27473852710666,19.316718287289145
22.90428335148211,120.27473398366153,19.319006271481516
22.9042790564314,120.27472940737556,19.32129835915566
22.904274732683245,120.2747247977862,19.323585757136346
22.904270380237648,120.27472015520182,19.325873741328717
22.90426599772806,120.2747154797766,19.32816524279118
22.90426158652103,120.27471077058546,19.330451468348507
22.9042571463888,120.27470602824512,19.33273652148247
22.90425267573707,120.27470125229301,19.33502802294493
22.904248176387892,120.27469644303753,19.337314248502256
22.90424364743024,120.27469160047866,19.33959812921286
22.904239088864117,120.27468672430804,19.341888458251955
22.90423450068952,120.27468181421732,19.344172925174238
22.904229883589718,120.27467687036065,19.3464579783082
22.90422523642593,120.27467189289223,19.34874303144217
22.904220559198155,120.27466688165788,19.351029256999496
22.904215852817423,120.27466183634924,19.353312551498416
22.904211116600457,120.27465675742884,19.3555970184207
22.90420635054726,120.27465164397161,19.357883830189706
22.904201554885592,120.27464649690262,19.360164779841902
22.904196728248902,120.27464131498843,19.362447488129142
22.9041918722315,120.27463609915412,19.36473371368647
22.904186986377866,120.27463084909134,19.36701407712698
22.90418207046024,120.27462556433753,19.369295612990857
22.90417712425087,120.27462024550941,19.371580666124824
22.904172147749758,120.2746148918361,19.373859857141973
22.90416714141241,120.27460950408847,19.37614022058249
22.904162104783317,120.27460408087892,19.37842410129309
22.904157037406968,120.2745986232867,19.380702119886877
22.90415193951111,120.27459313131183,19.38298131090403
22.904146811551264,120.27458760387502,19.385262846767905
22.90414165284416,120.27458204174718,19.387542037785057
22.904136464300823,120.27457644492831,19.38981888395548
22.904131245010227,120.27457081280168,19.392101006031037
22.90412599474461,120.27456514536732,19.39437726598978
22.904120714415008,120.27455944262518,19.39665469837189
22.904115403110385,120.27455370488366,19.398934475600722
22.904110060375228,120.2745479316802,19.401211907982827
22.904104688487113,120.27454212347735,19.40348699551821
22.90409928380192,120.27453627919583,19.405762669265272
22.90409384996377,120.27453039991492,19.408041860282424
22.90408838423957,120.27452448470953,19.410316361606125
22.90408288776811,120.27451853373383,19.41258969050646
22.90407736032163,120.2745125472962,19.41486770910025
22.904071801672377,120.27450652508826,19.417140451788903
22.90406621227586,120.2745004664933,19.41941319447756
22.904060591221054,120.27449437212802,19.421691213071348
22.904054938963473,120.27448824199244,19.423961024701597
22.90404925595863,120.27448207562402,19.426234353601934
22.904043541295493,120.2744758734853,19.428510027349
22.90403779565734,120.27446963465118,19.430780425190928
22.9040320183609,120.27446335958422,19.433050823032858
22.904026209633923,120.27445704828439,19.435324738144878
22.904020369931928,120.27445070044335,19.43759630841017
22.90401449766061,120.2744443160611,19.439864947617057
22.904008594642036,120.27443789529183,19.442134759247306
22.904002659509654,120.27443143782715,19.444405743300916
22.903996692946738,120.27442494382126,19.44667321008444
22.90399069495329,120.27441841281161,19.44894302171469
22.903984664618275,120.2744118447982,19.45121283334494
22.90397860308049,120.2744052399352,19.45348030012846
22.903972509201136,120.27439859822265,19.455747766911987
22.903966383663494,120.27439191950631,19.458017578542236
22.903960226012046,120.27438520363204,19.460282700479034
22.903954036930063,120.27437845090819,19.462548994839192
22.903947815278762,120.2743716599471,19.464817047834398
22.90394156151365,120.27436483198227,19.467081583559516
22.90393527631801,120.27435796747622,19.469346119284634
22.90392895832529,120.27435106488714,19.471612999856475
22.903922607991007,120.2743441243692,19.473875776946546
22.90391622554292,120.2743371468475,19.4761391402483
