Latitude,Longitude,Altitude (m)
-38.08805886206446,131.18459828251827,11949.826555252075
-38.07649039902227,131.18148049943034,11950.150663375854
-38.064921935980074,131.17832788077718,11950.474771499634
-38.053353472937886,131.17515784434138,11950.800333023071
-38.04178500989569,131.17200522568822,11951.120080947876
-38.0302165468535,131.16883518925243,11951.447095870972
-38.018655600681384,131.16566515281667,11951.771203994751
-38.00707962076912,131.1625125341635,11952.092405319214
-37.995518674597,131.15937733329295,11952.41942024231
-37.983950211554806,131.1562247146398,11952.74207496643
-37.97238926538269,131.15308951376923,11953.06618309021
-37.9608208023405,131.14995431289867,11953.39029121399
-37.949259856168375,131.1467842764629,11953.715852737427
-37.93769139312619,131.14370132894018,11954.038507461548
-37.92613044695407,131.1405138747218,11954.362615585327
-37.914561983911874,131.13737867385123,11954.685997009277
-37.903001037739756,131.1342608907633,11955.010831832886
-37.89144385000267,131.13110827211014,11955.334213256836
-37.879875386960485,131.12797307123958,11955.659048080444
-37.86832571609347,131.12490754149948,11955.984609603882
-37.856757253051285,131.12177234062892,11956.307991027832
-37.84519630687916,131.11867197532362,11956.63282585144
-37.83364287757712,131.11550193888783,11956.958387374878
-37.82208568984004,131.1124015735825,11957.281042098999
-37.810528502102954,131.1093360438424,11957.606603622437
-37.79896755593084,131.1061311718414,11957.932165145874
-37.78740660975871,131.10303080653608,11958.256273269653
-37.775845663586594,131.09993044123075,11958.581108093262
-37.764299751154624,131.09686491149066,11958.905216217041
-37.75273128811243,131.0937297106201,11959.228597640991
-37.74118537568046,131.0906293453148,11959.556339263916
-37.729628187943376,131.08749414444424,11959.878267288208
-37.718078517076364,131.08442861470414,11960.204555511475
-37.706525087774324,131.08136308496404,11960.529390335083
-37.6949641416022,131.0782627196587,11960.85567855835
-37.68341822917023,131.07516235435338,11961.1790599823
-37.67185728299811,131.0720968246133,11961.503894805908
-37.660311370566134,131.06899645930798,11961.829456329346
-37.648757941264094,131.06593092956788,11962.152837753296
-37.63721202883212,131.06281314647995,11962.479852676392
-37.62565859953007,131.05974761673986,11962.8046875
-37.614108928663065,131.05669950478236,11963.129522323608
-37.60255549936102,131.05359913947703,11963.455083847046
-37.591005828494005,131.05055102751956,11963.779191970825
-37.57946367449707,131.04748549777946,11964.104753494263
-37.567914003630065,131.04440255025676,11964.428861618042
-37.55636809119809,131.04133702051666,11964.755149841309
-37.54482217876612,131.03827149077657,11965.082891464233
-37.53328002476918,131.03520596103647,11965.406999588013
-37.52173035390217,131.032157849079,11965.731107711792
-37.51019571677531,131.02907490155627,11966.058122634888
-37.498638529038224,131.0260267895988,11966.382230758667
-37.487100133476325,131.0229786776413,11966.707792282104
-37.47555422104435,131.01994798346644,11967.031900405884
-37.46401582548245,131.01691728929157,11967.35818862915
-37.45246991305048,131.0138691773341,11967.683023452759
-37.44093151748858,131.0108210653766,11968.010765075684
-37.42939312192668,131.00779037120174,11968.334146499634
-37.417850967929745,131.00469000589644,11968.662614822388
-37.40631633080288,131.0017115650694,11968.988176345825
-37.3947704183709,130.99871570645976,11969.313011169434
-37.383239539679074,130.9956675945023,11969.64002609253
-37.37170490255222,130.99263690032743,11969.964134216309
-37.36017402386039,130.98962362393516,11970.291875839233
-37.34863186986345,130.9865755119777,11970.615257263184
-37.337093474301554,130.98357965336805,11970.942998886108
-37.32555883717469,130.9805489591932,11971.267833709717
-37.314024200047825,130.97755310058355,11971.594848632812
-37.30249707979103,130.97455724197388,11971.92113685608
-37.2909549257941,130.97152654779902,11972.24451828003
-37.27942404710227,130.96853068918938,11972.572986602783
-37.267900685280516,130.9654999950145,11972.89927482605
-37.25636980658869,130.9625389719701,11973.224109649658
-37.24483892789686,130.95954311336047,11973.551851272583
-37.23330053233496,130.95652983696823,11973.87813949585
-37.22177717051321,130.9535339783586,11974.204427719116
-37.210253808691455,130.95052070196633,11974.528535842896
-37.19871165469451,130.94757709670452,11974.857730865479
-37.1871920513078,130.94458123809488,11975.182565689087
-37.1756536557459,130.94156796170265,11975.51103401184
-37.164137810794216,130.93865919200607,11975.836595535278
-37.15261069053742,130.9356110800486,11976.163610458374
-37.141083570280635,130.9326500570042,11976.49062538147
-37.129560208458884,130.92968903395976,11976.816913604736
-37.11805188037727,130.92667575756752,11977.143201828003
-37.10651348481537,130.92376698787095,11977.468036651611
-37.094990122993615,130.92082338260914,11977.795778274536
-37.0834705196069,130.91784494178214,11978.12424659729
-37.07195091622018,130.9148490831725,11978.44835472107
-37.06042755439843,130.9118880601281,11978.776823043823
-37.04891922631682,130.9089618726489,11979.103837966919
-37.03739586449507,130.90596601403925,11979.429399490356
-37.025880019543386,130.90303982656008,11979.760047912598
-37.01436041615666,130.90009622129827,11980.084156036377
-37.002848329640024,130.8971700338191,11980.411897659302
-36.9913287262533,130.8941915929921,11980.738912582397
-36.979816639736654,130.8912828232955,11981.065927505493
-36.96830079478497,130.8883392180337,11981.394395828247
-36.95678494983329,130.8853781949893,11981.720684051514
-36.94526910488161,130.88245200751012,11982.049152374268
-36.93376077680001,130.87954323781355,11982.376167297363
-36.92224869028336,130.8766518858996,11982.703182220459
-36.910736603766715,130.87365602728997,11983.029470443726
-36.899228275685104,130.8707472575934,11983.356485366821
-36.8877199476035,130.86785590567945,11983.685680389404
-36.876207861086854,130.86491230041764,11984.01342201233
-36.86470329144028,130.86200353072107,11984.341163635254
-36.8531874464886,130.85914701437235,11984.668905258179
-36.841686635277064,130.85618599132795,11984.995920181274
-36.83017830719545,130.85327722163137,11985.3236618042
-36.81866997911385,130.85040328750003,11985.651403427124
-36.80716916790231,130.84751193558608,11985.979871749878
-36.795668356690776,130.84455091254168,11986.305433273315
-36.784160028609165,130.84171181397556,11986.63390159607
-36.772655458962596,130.83883787984422,11986.963096618652
-36.7611584061861,130.83594652793028,11987.290111541748
-36.74965759497456,130.8330377582337,11987.617853164673
-36.738156783763024,130.83014640631973,11987.946321487427
-36.72666348942156,130.827289889971,11988.276243209839
-36.71515891977499,130.82438112027444,11988.601804733276
-36.703661866998495,130.8214897683605,11988.932453155518
-36.692161055786954,130.81863325201178,11989.259468078613
-36.680671519880526,130.81579415344567,11989.586483001709
-36.66917446710403,130.81292021931432,11989.915678024292
-36.657681172762565,130.81004628518298,11990.244146347046
-36.6461878784211,130.80718976883426,11990.573341369629
-36.63469458407964,130.80431583470292,11990.900356292725
-36.62320504817322,130.80145931835418,11991.228824615479
-36.61170799539672,130.79860280200546,11991.557292938232
-36.60021470105526,130.79574628565675,11991.885761260986
-36.58872516514883,130.79294202265586,11992.216409683228
-36.57723938767744,130.7900506707419,11992.542697906494
-36.56574985177101,130.7872289899584,11992.871166229248
-36.55425655742955,130.78435505582706,11993.20181465149
-36.54277077995816,130.78149853947835,11993.528829574585
-36.53128500248677,130.77871169426007,11993.858751296997
-36.51980674188545,130.77589001347658,11994.187219619751
-36.50832096441406,130.77303349712784,11994.517141342163
-36.496835186942675,130.77022923412696,11994.845609664917
-36.48534940947128,130.76735529999561,11995.17553138733
-36.47386739043493,130.76456845477736,11995.503999710083
-36.46238912983361,130.76172935621125,11995.833194732666
-36.45090711079726,130.75899476434083,11996.16166305542
-36.43943260863098,130.75610341242685,11996.490858078003
-36.42795058959463,130.7533165672086,11996.818599700928
-36.41647232899331,130.75052972199032,11997.149248123169
-36.40499782682703,130.7476906234242,11997.479169845581
-36.39351580779068,130.74488636042332,11997.807638168335
-36.38204506405943,130.7421343507703,11998.137559890747
-36.37057056189315,130.73926041663896,11998.468935012817
-36.35909605972687,130.73652582476853,11998.796676635742
-36.34762531599563,130.73372156176765,11999.126598358154
-36.33615081382935,130.73091729876677,11999.456520080566
-36.32466879479299,130.72816528911372,11999.784261703491
-36.313205567931824,130.72537844389547,12000.11709022522
-36.30173482420058,130.72262643424241,12000.444105148315
-36.290264080469335,130.71980475345893,12000.775480270386
-36.2788046120432,130.71707016158848,12001.105401992798
-36.267330109876916,130.7142658985876,12001.43459701538
-36.25585936614568,130.71151388893458,12001.763792037964
-36.244396139284504,130.7087270437163,12002.095167160034
-36.23293667085837,130.70597503406327,12002.424362182617
-36.22146968556216,130.70325785997545,12002.755010604858
-36.2100177340061,130.70047101475717,12003.08493232727
-36.19855074870989,130.69771900510415,12003.414854049683
-36.187087521848724,130.69493215988587,12003.744775772095
-36.17562429498755,130.69221498579805,12004.076877593994
-36.16416858499645,130.68948039392762,12004.406072616577
-36.15269784126521,130.6867458020572,12004.737447738647
-36.14124964814418,130.68399379240418,12005.06736946106
-36.12979017971805,130.68125920053373,12005.397291183472
-36.118341986597024,130.67854202644594,12005.729393005371
-36.10687875973585,130.6758074345755,12006.058588027954
-36.09542680817979,130.6730902604877,12006.389236450195
-36.08397109818869,130.67033825083465,12006.720611572266
-36.072522905067665,130.66765591231206,12007.051259994507
-36.06106719507657,130.6648690670938,12007.381181716919
-36.04961900195554,130.66222156413644,12007.71183013916
-36.03816705039948,130.65950439004862,12008.042478561401
-36.026722615713496,130.65680463374343,12008.3745803833
-36.015278181027504,130.654070041873,12008.7066822052
-36.00382622947144,130.65138770335042,12009.033697128296
-35.992378036350416,130.6486705292626,12009.366525650024
-35.980933601664425,130.6459533551748,12009.699354171753
-35.96950420071858,130.64327101665222,12010.028549194336
-35.95805224916252,130.64058867812963,12010.362104415894
-35.946607814476536,130.6378715040418,12010.692026138306
-35.93517465509566,130.63515432995402,12011.023401260376
-35.923718945104554,130.6325590803445,12011.355503082275
-35.91229330259375,130.62989415960453,12011.686151504517
-35.90084886790776,130.62721182108194,12012.017526626587
-35.88941195009185,130.62452948255935,12012.350355148315
-35.87797503227593,130.62184714403676,12012.683183670044
-35.86653059758994,130.6191822232968,12013.011651992798
-35.855104955079135,130.61651730255684,12013.344480514526
-35.84366803726322,130.61381754625165,12013.677309036255
-35.8322311194473,130.61120487885952,12014.008684158325
-35.82079796006642,130.60852254033693,12014.341512680054
-35.809372317555614,130.6059272907274,12014.672161102295
-35.79794291660977,130.60324495220485,12015.002809524536
-35.78651351566393,130.6005974492475,12015.335638046265
-35.77508035628305,130.59796736407273,12015.667739868164
-35.76366223064232,130.595337278898,12016.001295089722
-35.75222907126144,130.5926375225928,12016.33412361145
-35.740807187185666,130.5900596907659,12016.664045333862
-35.7293853031099,130.58742960559115,12016.99760055542
-35.71796717746916,130.58479952041642,12017.32970237732
-35.70653025965325,130.5821868530243,12017.662530899048
-35.695115892447554,130.57955676784954,12017.995359420776
-35.68369400837178,130.5769441004574,12018.327461242676
-35.672279641166085,130.5743314330653,12018.658836364746
-35.66086151552535,130.57171876567318,12018.991664886475
-35.64944338988462,130.56914093384628,12019.324493408203
-35.63801774737381,130.56652826645416,12019.65804862976
-35.62660713860315,130.56395043462726,12019.991603851318
-35.61519652983249,130.5613029316699,12020.32225227356
-35.60377840419175,130.5587425176256,12020.657260894775
-35.59236779542109,130.5561472680161,12020.990089416504
-35.58095718665043,130.55353460062398,12021.321464538574
-35.56955409474985,130.55092193323185,12021.65647315979
-35.55813596910911,130.54834410140495,12021.98857498169
-35.54672536033845,130.54581852292588,12022.322130203247
-35.53532978530794,130.54318843775116,12022.656412124634
-35.5239116596672,130.54061060592426,12022.989967346191
-35.512508567766616,130.53805019187996,12023.32206916809
-35.50110923430106,130.53548977783566,12023.656351089478
-35.48970238396544,130.53291194600877,12023.989906311035
-35.47831056736996,130.5303689497471,12024.321281433105
-35.4668999585993,130.52780853570283,12024.658470153809
-35.45551190043886,130.52528295722377,12024.992025375366
-35.44409753323316,130.52267028983164,12025.323400497437
-35.43270195820264,130.5201621291352,12025.659135818481
-35.42130638317213,130.51761913287353,12025.99196434021
-35.40991080814161,130.51507613661187,12026.326246261597
-35.39851899154613,130.5125331403502,12026.659074783325
-35.387119658080586,130.50999014408853,12026.99481010437
-35.37573535835518,130.5074994011747,12027.329092025757
-35.364336024889624,130.50500865826086,12027.661193847656
-35.352951725164225,130.5024482442166,12027.996202468872
-35.34155990856874,130.4998878301723,12028.331937789917
-35.330179367278376,130.49737966947586,12028.664766311646
-35.31878379224786,130.49487150877943,12028.999048233032
-35.30740325095749,130.49232851251773,12029.334056854248
-35.29600767592697,130.48987260516915,12029.668338775635
-35.28462713463661,130.48731219112486,12030.002620697021
-35.27324659334624,130.48483886599365,12030.339082717896
-35.261858535185794,130.48236554086245,12030.670457839966
-35.25048175233046,130.47983996238338,12031.007646560669
-35.23910496947513,130.47736663725217,12031.341928482056
-35.22772066974972,130.47487589433834,12031.676210403442
-35.21634764532943,130.47240256920713,12032.012672424316
-35.20497837934417,130.4699292440759,12032.346227645874
-35.1935978380538,130.4674385011621,12032.682689666748
-35.18222105519847,130.4649825938135,12033.015518188477
-35.17084427234313,130.46243959755182,12033.353433609009
-35.15947876479291,130.46000110798582,12033.686988830566
-35.148105740372614,130.4575277828546,12034.02345085144
-35.13673271595231,130.45512412885387,12034.359186172485
-35.12537472527217,130.4526159681574,12034.694194793701
-35.11399794241683,130.45017747859143,12035.029930114746
-35.10262867643157,130.44773898902545,12035.364212036133
-35.09126692731638,130.44526566389422,12035.699220657349
-35.0799051782012,130.4427749209804,12036.03713607788
-35.06853967065098,130.44038868476227,12036.372144699097
-35.057181679970824,130.43791535963106,12036.707880020142
-35.0458161724206,130.43547687006506,12037.043615341187
-35.034458181740455,130.43307321606432,12037.38007736206
-35.0231001910603,130.4306347264983,12037.716539382935
-35.01174220038015,130.42823107249757,12038.05227470398
-35.00038045126497,130.42582741849682,12038.388010025024
-34.98902621901985,130.42338892893082,12038.72374534607
-34.97767574520977,130.42095043936484,12039.060207366943
-34.966321512964655,130.4185816209293,12039.396669387817
-34.95497103915458,130.41614313136333,12039.733131408691
-34.94361680690947,130.41370464179735,12040.069593429565
-34.93227384996946,130.41137065892704,12040.40605545044
-34.92092713459442,130.40893216936107,12040.743244171143
-34.9095729023493,130.40656335092552,12041.078252792358
-34.8982299454093,130.40417711470738,12041.41616821289
-34.8868869884693,130.401756042924,12041.752630233765
-34.875544031529294,130.39935238892326,12042.090545654297
-34.86419355771921,130.39701840605295,12042.427734375
-34.852865634519354,130.3946321698348,12042.762742996216
-34.84151891914431,130.39224593361666,12043.101385116577
-34.83017596220431,130.38991195074638,12043.437847137451
-34.818844280569415,130.3875082967456,12043.774309158325
-34.80750884049948,130.38517431387532,12044.112224578857
-34.796165883559475,130.3828229132224,12044.45013999939
-34.78483044348955,130.3804715125695,12044.788782119751
-34.77350252028969,130.3781201119166,12045.124517440796
-34.76217459708983,130.37571645791581,12045.463159561157
-34.75084667388997,130.37343472839336,12045.801801681519
-34.73951123382004,130.37108332774045,12046.138263702393
-34.72818331062018,130.3687145093049,12046.476905822754
-34.716862904290394,130.366363108652,12046.814094543457
-34.70553498109054,130.36406396134694,12047.15200996399
-34.69420705789067,130.36172997847663,12047.49065208435
-34.68288289312585,130.35943083117155,12047.828567504883
-34.67156248679606,130.35707943051864,12048.166482925415
-34.66024959733635,130.35476286543096,12048.504398345947
-34.64892543257153,130.35246371812588,12048.84231376648
-34.63760878467678,130.3501297352556,12049.180229187012
-34.62628461991196,130.34786542351574,12049.518871307373
-34.61497173045225,130.34553144064546,12049.857513427734
-34.60365884099253,130.34323229334038,12050.196155548096
-34.59234595153282,130.34096798160053,12050.535524368286
-34.58104057894318,130.33868625207808,12050.873439788818
-34.569720172613394,130.336387104773,12051.213535308838
-34.558414800023755,130.33410537525054,12051.549997329712
-34.54710566899907,130.3318410635107,12051.888639450073
-34.5357965379744,130.329524498423,12052.230188369751
-34.52449116538476,130.32720793333533,12052.567377090454
-34.513189551230155,130.3249784571607,12052.908926010132
-34.50188042020548,130.32271414542086,12053.246841430664
-34.49058256448591,130.32044983368104,12053.585483551025
-34.47928470876634,130.31815068637596,12053.926305770874
-34.467979336176704,130.31592121020134,12054.265674591064
-34.456681480457135,130.3136568984615,12054.605043411255
-34.445383624737566,130.3114622578521,12054.943685531616
-34.43408201058297,130.30919794611228,12055.284507751465
-34.42280294703858,130.30693363437243,12055.622423171997
-34.41150133288398,130.3047041581978,12055.963245391846
-34.40021099403448,130.3024746820232,12056.304067611694
-34.388916896749954,130.30021037028334,12056.642709732056
-34.37763031633549,130.29801572967398,12056.984985351562
-34.366343735921035,130.29578625349936,12057.324354171753
-34.35505339707154,130.29357419510734,12057.663722991943
-34.34377809196219,130.29136213671535,12058.004545211792
-34.33249151154774,130.28913266054073,12058.344640731812
-34.3211974142632,130.28693801993134,12058.684736251831
-34.309925867588895,130.28472596153935,12059.02555847168
-34.29864680404451,130.2825835742778,12059.36492729187
-34.28736398206509,130.28031926253797,12059.706476211548
-34.27608867695574,130.27819429305902,12060.047298431396
-34.26481337184639,130.2759299813192,12060.388120651245
-34.253545583607114,130.27377017627504,12060.727489471436
-34.24226276162769,130.27161037123088,12061.069765090942
-34.23098745651834,130.26939831283886,12061.41131401062
-34.21971966827907,130.2672210900121,12061.753589630127
-34.208448121604754,130.26509612053317,12062.094411849976
-34.197184091800516,130.26290147992378,12062.435234069824
-34.18591630356124,130.2607068393144,12062.777509689331
-34.17465603219204,130.25854703427024,12063.116151809692
-34.16338072708269,130.2564220647913,12063.4584274292
-34.15212045571349,130.25422742418192,12063.799976348877
-34.140860184344284,130.252102454703,12064.140798568726
-34.129596154540046,130.24997748522406,12064.483800888062
-34.11834715847595,130.24780026239728,12064.82534980774
-34.10709064554178,130.2457275462662,12065.168352127075
-34.09581909886747,130.24356774122205,12065.509174346924
-34.08457761967345,130.24137310061266,12065.852903366089
-34.073321106739286,130.2393178022642,12066.193725585938
