Latitude,Longitude,Altitude (m)
55.33082,-123.746956,11480.128
55.328552,-123.746414,11480.491
55.32623,-123.74599,11480.941
55.32386,-123.74566,11481.523
55.321655,-123.74496,11482.05
55.319572,-123.74407,11482.416
55.317333,-123.743515,11482.823
55.315147,-123.74286,11483.194
55.312984,-123.74215,11483.498
55.31094,-123.7412,11483.615
55.30895,-123.74024,11483.531
55.30685,-123.739494,11483.358
55.304836,-123.73854,11482.985
55.30263,-123.73801,11482.622
55.300396,-123.7375,11482.285
55.2982,-123.73685,11481.89
55.295914,-123.73642,11481.56
55.293682,-123.73585,11481.209
55.291355,-123.73544,11480.947
55.289005,-123.7351,11480.786
55.286583,-123.734856,11480.802
55.284363,-123.73419,11480.749
55.28225,-123.73337,11480.569
55.27999,-123.73288,11480.452
55.27771,-123.73238,11480.378
55.275433,-123.73188,11480.335
55.27307,-123.731544,11480.418
55.270664,-123.731285,11480.665
55.26849,-123.7305,11480.793
55.26645,-123.729546,11480.724
55.26423,-123.72903,11480.708
55.26201,-123.72841,11480.663
55.259804,-123.7278,11480.596
55.25748,-123.72741,11480.624
55.255096,-123.72712,11480.793
55.25274,-123.72673,11481.055
55.250355,-123.72641,11481.446
55.248234,-123.725525,11481.664
55.24607,-123.7248,11481.834
55.24385,-123.72422,11482.013
55.241634,-123.72359,11482.16
55.23946,-123.722916,11482.255
55.237328,-123.72212,11482.239
55.234985,-123.72181,11482.367
55.23272,-123.72125,11482.492
55.230503,-123.720604,11482.573
55.228363,-123.71983,11482.545
55.22614,-123.719246,11482.525
55.224026,-123.71843,11482.364
55.221867,-123.71775,11482.1455
55.21957,-123.71732,11482.002
55.217262,-123.71687,11481.917
55.214874,-123.71659,11481.973
55.212654,-123.71589,11481.944
55.210403,-123.715324,11481.924
55.2082,-123.714676,11481.873
55.20587,-123.714264,11481.915
55.20355,-123.71383,11482.019
55.20115,-123.71353,11482.271
55.198685,-123.713356,11482.732
55.19626,-123.713036,11483.329
55.194187,-123.712,11483.681
55.19199,-123.71138,11484.042
55.189587,-123.711136,11484.598
55.18728,-123.71061,11485.177
55.185013,-123.71004,11485.768
55.1829,-123.70918,11486.219
55.18077,-123.70839,11486.57
55.178596,-123.70773,11486.896
55.176502,-123.70686,11487.062
55.174328,-123.706215,11487.193
55.17205,-123.705734,11487.385
55.169815,-123.705124,11487.545
55.167706,-123.70431,11487.57
55.165604,-123.703476,11487.471
55.163456,-123.70275,11487.29
55.16118,-123.70231,11487.167
55.159054,-123.7015,11486.911
55.15689,-123.70082,11486.595
55.15465,-123.70027,11486.279
55.1523,-123.69995,11486.079
55.150154,-123.69916,11485.74
55.147984,-123.698456,11485.336
55.14583,-123.69776,11484.857
55.143703,-123.69698,11484.258
55.14146,-123.69649,11483.6875
55.13926,-123.69587,11483.074
55.13704,-123.69528,11482.422
55.13472,-123.694916,11481.864
55.132225,-123.69485,11481.552
55.129795,-123.694565,11481.367
55.127502,-123.69404,11481.186
55.125214,-123.693535,11481.037
55.122948,-123.693,11480.913
55.120716,-123.6924,11480.764
55.11843,-123.691925,11480.667
55.116215,-123.6913,11480.539
55.114098,-123.690475,11480.275
55.112003,-123.689644,11479.884
55.109905,-123.688866,11479.37
55.107697,-123.68832,11478.856
55.105297,-123.68812,11478.527
55.10285,-123.68791,11478.366
55.100418,-123.687645,11478.345
55.098,-123.68733,11478.45
55.09561,-123.687004,11478.675
55.093227,-123.686646,11479.006
55.09089,-123.68619,11479.406
55.088623,-123.68561,11479.8125
55.08648,-123.68479,11480.109
55.08433,-123.68406,11480.334
55.082066,-123.68358,11480.615
55.079777,-123.68309,11480.941
55.07742,-123.68272,11481.37
55.075092,-123.682274,11481.867
55.07281,-123.68171,11482.37
55.07063,-123.681,11482.796
55.068485,-123.68024,11483.139
55.066185,-123.67982,11483.57
55.063896,-123.6793,11484.029
55.061726,-123.67855,11484.397
55.05956,-123.67784,11484.697
55.057297,-123.6773,11485.029
55.055195,-123.676445,11485.204
55.05311,-123.67558,11485.235
55.050987,-123.67481,11485.169
55.048855,-123.67406,11485.015
55.04672,-123.67333,11484.762
55.044445,-123.67287,11484.56
55.04221,-123.67227,11484.322
55.03988,-123.67187,11484.169
55.037624,-123.67132,11484.002
55.035446,-123.67059,11483.753
55.033295,-123.66986,11483.406
55.030926,-123.669556,11483.219
55.02864,-123.669044,11483.035
55.026424,-123.66841,11482.81
55.02424,-123.66773,11482.5205
55.021843,-123.66749,11482.408
55.019146,-123.667786,11482.745
55.016537,-123.66778,11483.347
55.01418,-123.66726,11483.969
55.01186,-123.66672,11484.622
55.00959,-123.666145,11485.298
55.00729,-123.66563,11486.021
55.00504,-123.66501,11486.741
55.0029,-123.66418,11487.339
55.00068,-123.66356,11487.938
54.99854,-123.662766,11488.424
54.996414,-123.66195,11488.798
54.99446,-123.660805,11488.883
54.992462,-123.65984,11488.773
54.990448,-123.6589,11488.469
54.98822,-123.65838,11488.193
54.98602,-123.65775,11487.866
54.983795,-123.65715,11487.513
54.981434,-123.65684,11487.284
54.97893,-123.65674,11487.29
54.97639,-123.65665,11487.522
54.973904,-123.65644,11487.94
54.97151,-123.656,11488.439
54.969254,-123.65535,11488.908
54.96706,-123.65463,11489.319
54.964924,-123.65379,11489.614
54.962776,-123.65304,11489.832
54.96059,-123.65234,11490.004
54.958313,-123.65184,11490.219
54.956074,-123.65119,11490.391
54.953773,-123.65069,11490.606
54.95154,-123.65005,11490.781
54.949333,-123.64933,11490.892
54.947075,-123.6488,11491.028
54.944847,-123.64814,11491.118
54.94253,-123.64769,11491.278
54.94024,-123.64715,11491.46
54.937965,-123.64658,11491.649
54.935688,-123.64601,11491.843
54.933388,-123.6455,11492.075
54.931255,-123.64465,11492.152
54.929066,-123.64398,11492.193
54.92693,-123.643166,11492.106
54.924843,-123.6423,11491.862
54.922653,-123.641685,11491.589
54.920483,-123.64098,11491.2295
54.91836,-123.64019,11490.739
54.916035,-123.639824,11490.351
54.914032,-123.63876,11489.668
54.911865,-123.6381,11488.931
54.909424,-123.637985,11488.418
54.906895,-123.63794,11488.142
54.904484,-123.63759,11487.942
54.901985,-123.63747,11487.972
54.899525,-123.63722,11488.149
54.89714,-123.63683,11488.417
54.89493,-123.6361,11488.597
54.892677,-123.63551,11488.784
54.89042,-123.63493,11488.975
54.888325,-123.634026,11488.991
54.88615,-123.63335,11488.954
54.883812,-123.632996,11489.037
54.88135,-123.63281,11489.313
54.87902,-123.6323,11489.608
54.8769,-123.63139,11489.727
54.874783,-123.63057,11489.718
54.872562,-123.62997,11489.707
54.87041,-123.62921,11489.588
54.868168,-123.62865,11489.471
54.865932,-123.62804,11489.322
54.86373,-123.62737,11489.118
54.861485,-123.626816,11488.913
54.85918,-123.62634,11488.742
54.856907,-123.625786,11488.565
54.854782,-123.62495,11488.231
54.85261,-123.62425,11487.832
54.85031,-123.623825,11487.499
54.847893,-123.6236,11487.329
54.845592,-123.62307,11487.158
54.843422,-123.6223,11486.866
54.841194,-123.62173,11486.57
54.83884,-123.62137,11486.382
54.83665,-123.62063,11486.081
54.834656,-123.6196,11485.524
54.832508,-123.61888,11484.905
54.830177,-123.61855,11484.396
54.827885,-123.61806,11483.895
54.825485,-123.617805,11483.543
54.823162,-123.61733,11483.217
54.820976,-123.61659,11482.796
54.818798,-123.61592,11482.31
54.816536,-123.61541,11481.848
54.81426,-123.614914,11481.41
54.81188,-123.61459,11481.1
54.80945,-123.614365,11480.946
54.806927,-123.614296,11481.044
54.80449,-123.613976,11481.265
54.802284,-123.613205,11481.378
54.80012,-123.61244,11481.413
54.79788,-123.611885,11481.465
54.795845,-123.61088,11481.285
54.79367,-123.61024,11481.086
54.79143,-123.609695,11480.884
54.789024,-123.60949,11480.862
54.786713,-123.608986,11480.861
54.784504,-123.60831,11480.788
54.78218,-123.60792,11480.811
54.77982,-123.607544,11480.941
54.77748,-123.607124,11481.14
54.775135,-123.606705,11481.415
54.772915,-123.606,11481.631
54.770817,-123.60513,11481.698
54.768764,-123.60421,11481.585
54.76667,-123.60341,11481.356
54.764362,-123.60305,11481.241
54.762077,-123.60253,11481.136
54.75972,-123.602196,11481.143
54.7574,-123.60174,11481.187
54.755116,-123.60122,11481.258
54.752968,-123.6004,11481.193
54.750835,-123.599655,11481.039
54.748566,-123.599174,11480.935
54.74618,-123.5989,11480.978
54.74383,-123.59849,11481.09
54.741653,-123.597725,11481.092
54.739464,-123.59706,11481.053
54.737255,-123.59645,11480.992
54.735027,-123.59588,11480.911
54.732704,-123.595505,11480.929
54.730434,-123.594955,11480.951
54.728123,-123.59453,11481.037
54.725883,-123.59393,11481.096
54.723732,-123.593185,11481.061
54.721542,-123.59256,11480.996
54.719257,-123.5921,11480.991
54.717037,-123.59151,11480.953
54.714787,-123.590965,11480.931
54.71243,-123.590645,11481.021
54.71018,-123.59006,11481.088
54.707916,-123.589516,11481.167
54.70573,-123.58883,11481.181
54.70348,-123.588295,11481.224
54.701313,-123.587585,11481.18
54.699078,-123.587036,11481.147
54.69683,-123.586494,11481.127
54.69464,-123.58582,11481.043
54.692486,-123.58511,11480.876
54.690147,-123.58479,11480.838
54.687756,-123.58449,11480.929
54.685566,-123.58377,11480.92
54.683403,-123.58307,11480.843
54.681194,-123.58248,11480.751
54.678997,-123.58185,11480.617
54.676823,-123.58118,11480.425
54.674572,-123.58069,11480.26
54.672234,-123.58033,11480.193
54.670048,-123.57965,11480.049
54.66773,-123.57926,11479.991
54.665543,-123.57857,11479.846
54.663235,-123.57817,11479.788
54.660995,-123.577614,11479.72
54.658684,-123.57718,11479.715
54.65643,-123.57664,11479.714
54.65411,-123.576225,11479.788
54.652,-123.57536,11479.694
54.64977,-123.57483,11479.626
54.64741,-123.57455,11479.694
54.645023,-123.574234,11479.888
54.642735,-123.57371,11480.094
54.640556,-123.573006,11480.228
54.63847,-123.57213,11480.202
54.636337,-123.5714,11480.104
54.634228,-123.57063,11479.889
54.632057,-123.56999,11479.635
54.629875,-123.56936,11479.326
54.627686,-123.56875,11478.983
54.625404,-123.56831,11478.69
54.62308,-123.56791,11478.468
54.6207,-123.56762,11478.365
54.61852,-123.5669,11478.161
54.616367,-123.5662,11477.884
54.61422,-123.565475,11477.523
54.612,-123.56496,11477.18
54.609676,-123.56459,11476.926
54.60746,-123.563965,11476.625
54.605255,-123.563354,11476.285
54.60311,-123.56263,11475.852
54.60089,-123.56212,11475.426
54.59854,-123.561806,11475.118
54.596237,-123.56138,11474.8545
54.59402,-123.56076,11474.549
54.59182,-123.56016,11474.206
54.589615,-123.55957,11473.844
54.58739,-123.55901,11473.466
54.585163,-123.55846,11473.08
54.58289,-123.557976,11472.726
54.580593,-123.55756,11472.433
54.57836,-123.55698,11472.102
54.576126,-123.55646,11471.782
54.573875,-123.55594,11471.472
54.57157,-123.55553,11471.239
54.569256,-123.5551,11471.062
54.567036,-123.55448,11470.844
54.5648,-123.553925,11470.63
54.562492,-123.55353,11470.497
54.560192,-123.55308,11470.418
54.557808,-123.55279,11470.481
54.55555,-123.55222,11470.529
54.55329,-123.5517,11470.6
54.55095,-123.55135,11470.791
54.54864,-123.550896,11471.027
54.546394,-123.550316,11471.255
54.54423,-123.54958,11471.402
54.542072,-123.548904,11471.493
54.539925,-123.54819,11471.508
54.537678,-123.547676,11471.553
54.53542,-123.547165,11471.617
54.5332,-123.54658,11471.658
54.530945,-123.546074,11471.722
54.52875,-123.545395,11471.723
54.52652,-123.544846,11471.723
54.52419,-123.5445,11471.83
54.52195,-123.54389,11471.905
54.519646,-123.54349,11472.061
54.517433,-123.542854,11472.165
54.515076,-123.54254,11472.41
54.51271,-123.54219,11472.756
54.510353,-123.54183,11473.201
54.508064,-123.54131,11473.675
54.50589,-123.54056,11474.05
54.50371,-123.53991,11474.393
54.50147,-123.53936,11474.755
54.49931,-123.538635,11475.021
54.49708,-123.53806,11475.296
54.49481,-123.537575,11475.615
54.49256,-123.53701,11475.929
54.490395,-123.5363,11476.163
54.48828,-123.535484,11476.27
54.486183,-123.53469,11476.259
54.484016,-123.534035,11476.207
54.481716,-123.533646,11476.241
54.4793,-123.533424,11476.454
54.47697,-123.532974,11476.705
54.47468,-123.53246,11476.978
54.47239,-123.53199,11477.299
54.47007,-123.53153,11477.687
54.46777,-123.53106,11478.119
54.46558,-123.530334,11478.472
54.46345,-123.529564,11478.728
54.461426,-123.528595,11478.777
54.45937,-123.52777,11478.6875
54.45725,-123.52705,11478.511
54.454987,-123.52662,11478.393
54.452625,-123.526306,11478.391
54.45021,-123.52607,11478.541
54.44816,-123.525055,11478.426
54.446167,-123.524055,11478.086
54.444054,-123.52335,11477.674
54.441883,-123.52274,11477.225
54.43968,-123.52218,11476.754
54.43745,-123.52164,11476.273
54.435085,-123.52138,11475.931
54.43265,-123.52118,11475.755
54.43039,-123.520615,11475.547
54.42817,-123.520004,11475.302
54.425854,-123.519615,11475.148
54.423542,-123.51918,11475.055
54.421238,-123.51871,11475.003
54.418972,-123.5182,11474.971
54.41671,-123.51767,11474.956
54.414455,-123.517136,11474.947
54.41207,-123.51687,11475.091
54.409798,-123.516304,11475.223
54.407623,-123.51558,11475.276
54.40538,-123.51503,11475.342
54.403065,-123.51464,11475.491
54.400715,-123.51427,11475.738
54.398308,-123.51395,11476.12
54.396057,-123.51336,11476.48
54.393726,-123.51295,11476.927
54.391552,-123.51222,11477.29
54.389378,-123.51151,11477.59
54.38722,-123.51077,11477.8125
54.385086,-123.51005,11477.95
54.382893,-123.50944,11478.071
54.380527,-123.50914,11478.323
54.37833,-123.50844,11478.491
54.37596,-123.508156,11478.813
54.37362,-123.50774,11479.206
54.371346,-123.50721,11479.606
54.369125,-123.50655,11479.972
54.366882,-123.50599,11480.348
54.364693,-123.5053,11480.659
54.36252,-123.50465,11480.928
54.360344,-123.50395,11481.131
54.358128,-123.50337,11481.332
54.35573,-123.50316,11481.708
54.353436,-123.502655,11482.104
54.35118,-123.50209,11482.502
54.349125,-123.50113,11482.683
54.346947,-123.50052,11482.861
54.34481,-123.49978,11482.934
54.342754,-123.49887,11482.826
54.340767,-123.497894,11482.496
54.33876,-123.497,11481.981
54.33647,-123.49663,11481.568
54.334175,-123.49623,11481.199
54.331944,-123.49563,11480.785
54.329636,-123.495255,11480.445
54.327293,-123.494896,11480.197
54.324894,-123.49462,11480.082
54.32257,-123.49418,11480.019
54.32011,-123.49402,11480.164
54.317726,-123.49369,11480.416
54.31543,-123.49316,11480.694
54.313168,-123.49261,11480.983
54.31093,-123.49204,11481.279
54.308678,-123.49148,11481.576
54.306408,-123.490974,11481.913
54.304333,-123.49007,11482.06
54.302303,-123.48918,11482.032
54.30023,-123.48833,11481.859
54.298122,-123.4876,11481.591
54.296062,-123.486786,11481.161
54.293922,-123.48613,11480.656
54.291744,-123.485535,11480.113
54.28938,-123.48533,11479.728
54.28707,-123.4849,11479.379
54.28465,-123.484695,11479.199
54.282356,-123.48419,11479.0205
54.28011,-123.483635,11478.838
54.27798,-123.48288,11478.543
54.275677,-123.48252,11478.349
54.27339,-123.48206,11478.194
54.271152,-123.48151,11478.027
54.26892,-123.48095,11477.852
54.266624,-123.48053,11477.738
54.26433,-123.480095,11477.673
54.262024,-123.47969,11477.667
54.25981,-123.47908,11477.634
54.25753,-123.47864,11477.647
54.255283,-123.47808,11477.659
54.253014,-123.47759,11477.706
54.250893,-123.47681,11477.627
54.248657,-123.47629,11477.571
54.24648,-123.475655,11477.468
54.244278,-123.47506,11477.322
54.24209,-123.47447,11477.158
54.23976,-123.474106,11477.085
54.23738,-123.473854,11477.155
54.23512,-123.4733,11477.208
54.23289,-123.4727,11477.241
54.230774,-123.47193,11477.153
54.228645,-123.47121,11476.983
54.226414,-123.47069,11476.833
54.22427,-123.47,11476.592
54.22208,-123.4694,11476.326
54.219833,-123.46892,11476.082
54.217545,-123.46849,11475.893
54.215298,-123.46799,11475.699
54.213055,-123.467445,11475.508
54.210857,-123.466835,11475.274
54.208622,-123.46631,11475.055
54.20625,-123.466064,11474.988
54.203827,-123.46588,11475.101
54.2014,-123.46565,11475.365
54.199104,-123.46516,11475.653
54.196774,-123.464745,11476.021
54.194416,-123.46441,11476.517
54.192142,-123.463875,11477.021
54.189976,-123.46316,11477.454
54.187805,-123.46248,11477.839
54.185726,-123.46164,11478.076
54.183624,-123.460884,11478.222
54.181503,-123.46014,11478.269
54.17939,-123.4594,11478.219
54.17721,-123.45881,11478.144
54.17497,-123.45832,11478.095
54.17281,-123.45763,11477.955
54.170586,-123.4571,11477.822
54.168346,-123.45659,11477.703
54.166103,-123.45608,11477.591
54.163757,-123.45574,11477.593
54.161358,-123.45549,11477.744
54.15896,-123.455215,11478.032
54.156605,-123.45482,11478.409
54.154335,-123.45429,11478.799
54.15209,-123.45373,11479.194
54.14992,-123.45304,11479.522
54.14782,-123.45225,11479.728
54.145702,-123.45152,11479.852
54.143467,-123.451004,11479.997
54.141247,-123.45042,11480.126
54.13906,-123.4498,11480.205
54.13694,-123.44905,11480.181
54.134727,-123.44851,11480.158
54.13247,-123.44805,11480.179
54.13009,-123.44777,11480.338
54.1278,-123.4473,11480.521
54.12555,-123.44677,11480.714
54.12331,-123.446236,11480.91
54.12104,-123.44575,11481.145
54.118904,-123.44498,11481.262
54.11681,-123.44418,11481.252
54.114685,-123.44348,11481.169
54.11252,-123.44285,11481.039
54.11033,-123.442276,11480.879
54.10799,-123.441986,11480.852
54.105778,-123.44138,11480.764
54.10352,-123.440895,11480.705
54.101257,-123.440414,11480.672
54.09907,-123.43977,11480.577
54.09695,-123.43901,11480.372
54.094746,-123.43846,11480.16
54.09245,-123.43808,11480.024
54.09019,-123.4376,11479.908
54.08797,-123.43701,11479.763
54.08579,-123.43638,11479.561
54.083538,-123.435905,11479.393
54.081177,-123.43563,11479.359
54.078793,-123.43536,11479.456
54.07648,-123.43492,11479.6
54.07424,-123.43436,11479.731
54.071945,-123.43391,11479.925
54.0697,-123.433365,11480.124
54.06759,-123.43254,11480.18
54.065483,-123.43178,11480.137
54.06337,-123.431046,11479.992
54.061066,-123.43071,11479.971
54.05873,-123.43035,11480.032
54.056408,-123.42994,11480.146
54.05409,-123.42951,11480.338
54.051888,-123.428856,11480.459
54.049683,-123.42828,11480.571
54.047554,-123.42751,11480.569
54.04543,-123.426796,11480.491
54.043224,-123.42622,11480.4
54.040943,-123.42581,11480.376
54.03859,-123.425514,11480.475
54.036316,-123.42502,11480.579
54.034233,-123.42413,11480.503
54.032043,-123.423546,11480.409
54.029903,-123.42286,11480.237
54.02767,-123.42236,11480.087
54.025322,-123.42207,11480.066
54.02305,-123.42158,11480.06
54.0207,-123.42126,11480.167
54.01836,-123.420876,11480.353
54.01615,-123.42021,11480.473
54.01401,-123.41951,11480.513
54.011787,-123.41897,11480.569
54.009544,-123.41847,11480.645
54.007465,-123.41761,11480.547
54.005295,-123.41704,11480.439
54.003067,-123.41651,11480.333
54.00078,-123.41613,11480.303
53.998577,-123.4155,11480.211
53.99636,-123.41495,11480.116
53.993942,-123.41482,11480.238
53.991592,-123.41444,11480.436
53.9893,-123.41396,11480.676
53.98692,-123.41368,11481.052
53.98459,-123.41329,11481.517
53.982346,-123.412704,11481.964
53.980133,-123.412094,11482.397
53.977962,-123.41142,11482.778
53.975983,-123.41039,11482.914
53.973896,-123.40962,11482.947
53.9718,-123.408905,11482.887
53.969624,-123.40833,11482.807
53.96741,-123.40778,11482.716
53.96506,-123.40752,11482.766
53.962605,-123.4074,11483.021
53.96021,-123.40713,11483.414
53.957893,-123.40668,11483.8545
53.955654,-123.40608,11484.286
53.95351,-123.40536,11484.632
53.951454,-123.40447,11484.812
53.949352,-123.40377,11484.921
53.947163,-123.40318,11485.016
53.945053,-123.40246,11485.007
53.942924,-123.401764,11484.921
53.94059,-123.40149,11484.97
53.938293,-123.401085,11485.077
53.93594,-123.40074,11485.296
53.933586,-123.40044,11485.619
53.931366,-123.3998,11485.909
53.92925,-123.39904,11486.093
53.926987,-123.39861,11486.348
53.924744,-123.3981,11486.621
53.922707,-123.397156,11486.691
53.920708,-123.396255,11486.578
53.918533,-123.39568,11486.461
53.916363,-123.39511,11486.308
53.914104,-123.394684,11486.209
53.9119,-123.3941,11486.075
53.909744,-123.39346,11485.881
53.9077,-123.39259,11485.498
53.905643,-123.39182,11484.988
53.903458,-123.39129,11484.475
53.901215,-123.39088,11484.001
53.89883,-123.39069,11483.702
53.896454,-123.39044,11483.522
53.894123,-123.39008,11483.419
53.891872,-123.38958,11483.319
53.88975,-123.38884,11483.114
53.887585,-123.38822,11482.869
53.88518,-123.38811,11482.858
53.883,-123.387436,11482.756
53.88086,-123.386765,11482.58
53.878498,-123.38654,11482.575
53.876144,-123.38627,11482.6875
53.873756,-123.38602,11482.951
53.871506,-123.38546,11483.2
