Latitude,Longitude,Altitude (m)
-38.00574537633118,131.48146696939435,12015.403221130371
-37.99419194702913,131.47885430200222,12015.74404335022
-37.98264603459716,131.47617196347963,12016.086318969727
-37.97109260529511,131.47350704273967,12016.429321289062
-37.959531659122995,131.47077245086925,12016.77087020874
-37.947985746691025,131.46815978347712,12017.114599227905
-37.93643983425905,131.46549486273713,12017.45832824707
-37.924886404957,131.462882195345,12017.799877166748
-37.91334049252503,131.4601824390398,12018.143606185913
-37.90179458009305,131.45753493608245,12018.48588180542
-37.89024115079101,131.45495710425556,12018.830337524414
-37.878695238359036,131.4522921835156,12019.17406654358
-37.86715684279714,131.44966209834084,12019.517795562744
-37.85560341349509,131.4470145953835,12019.860071182251
-37.84405750106312,131.44440192799138,12020.205980300903
-37.83251158863115,131.44178926059925,12020.549709320068
-37.82096567619917,131.4391591754245,12020.894165039062
-37.8094197637672,131.43659876138022,12021.238620758057
-37.7978813682053,131.43393384064024,12021.58307647705
-37.786335455773326,131.43133859103074,12021.927532196045
-37.77479706021143,131.42876075920384,12022.274894714355
-37.76325114777946,131.4261480918117,12022.617170333862
-37.75171275221756,131.42355284220218,12022.963806152344
-37.74016683978558,131.42092275702745,12023.308988571167
-37.72863596109375,131.4183797607658,12023.652717590332
-37.71709756553185,131.4158193467215,12024.0015335083
-37.70555165309988,131.413224097112,12024.345262527466
-37.69402077440805,131.4106462652851,12024.691898345947
-37.68247486197608,131.4080684334582,12025.038534164429
-37.67093646641418,131.40545576606607,12025.38516998291
-37.65939807085228,131.40294760536963,12025.731079101562
-37.647867192160454,131.40040460910797,12026.078441619873
-37.636328796598555,131.39786161284627,12026.427257537842
-37.624797917906726,131.39526636323677,12026.770986557007
-37.6132670392149,131.3927233669751,12027.119802474976
-37.601736160523075,131.39019778849604,12027.467891693115
-37.590197764961175,131.387672210017,12027.813074111938
-37.578674403139416,131.3851292137553,12028.162616729736
-37.56714352444759,131.38256879971104,12028.508525848389
-37.555612645755765,131.38009547457983,12028.8558883667
-37.544081767063936,131.37755247831814,12029.206884384155
-37.532558405242185,131.3750443176217,12029.553520202637
-37.521027526550355,131.37253615692526,12029.902336120605
-37.509496647858526,131.37002799622883,12030.250425338745
-37.4979657691667,131.3675198355324,12030.598514556885
-37.486442407344946,131.36502909261856,12030.948057174683
-37.474919045523194,131.36257318526995,12031.296146392822
-37.463395683701435,131.36009986013875,12031.644962310791
-37.45186480500961,131.35752202831185,12031.99377822876
-37.440341443187855,131.35511837431108,12032.343320846558
-37.4288180813661,131.3525753780494,12032.694316864014
-37.417294719544344,131.3501020529182,12033.04458618164
-37.40577135772259,131.347628727787,12033.394128799438
-37.39424799590084,131.3451554026558,12033.743671417236
-37.38273966781923,131.3427169130898,12034.093940734863
-37.37121630599748,131.34026100574118,12034.442756652832
-37.3597004610458,131.33777026282738,12034.795932769775
-37.34817709922404,131.3353666088266,12035.146202087402
-37.33666125427236,131.3328932836954,12035.4957447052
-37.325137892450606,131.33045479412942,12035.848920822144
-37.313622047498924,131.32801630456342,12036.198463439941
-37.302113719417314,131.3255429794322,12036.550912857056
-37.29059035759556,131.32317416099667,12036.901908874512
-37.27907451264388,131.3207356714307,12037.254358291626
-37.26756618456227,131.31833201742995,12037.603900909424
-37.25605785648066,131.31587611008135,12037.957077026367
-37.244549528399055,131.31352470942844,12038.308799743652
-37.233033683447374,131.31106880207983,12038.659795761108
-37.22151783849569,131.3086825658617,12039.015151977539
-37.21000951041408,131.3062440762957,12039.365421295166
-37.19850869920255,131.30387525786017,12039.71859741211
-37.18700037112094,131.30147160385943,12040.073226928711
-37.17549204303933,131.2991202032065,12040.425676345825
-37.16398371495772,131.29673396698837,12040.779579162598
-37.15247538687611,131.2943303129876,12041.131301879883
-37.14097457566458,131.29196149455208,12041.485204696655
-37.12946624758297,131.2896449294644,12041.839834213257
-37.117972953241505,131.28722385768103,12042.19373703003
-37.106457108289824,131.28485503924549,12042.546913146973
-37.09495629707829,131.28248622080997,12042.901542663574
-37.08345548586675,131.28015223793966,12043.256172180176
-37.071962191525294,131.27783567285198,12043.611528396606
-37.06045386344368,131.27544943663383,12043.965431213379
-37.04896056910222,131.27311545376352,12044.32006072998
-37.03745975789069,131.27081630645847,12044.67614364624
-37.02595894667915,131.2684997413708,12045.03149986267
-37.01445813546761,131.26614834071788,12045.385402679443
-37.00296484112615,131.2638491934128,12045.745119094849
-36.99147154678469,131.2615326283251,12046.097568511963
-36.979978252443225,131.25921606323743,12046.452924728394
-36.96848495810176,131.25688208036712,12046.81191444397
-36.9569916637603,131.25458293306204,12047.165817260742
-36.94550588628891,131.252283785757,12047.524806976318
-36.93401259194745,131.2500020562345,12047.87943649292
-36.92251178073591,131.24768549114683,12048.236246109009
-36.911033520134595,131.245421179407,12048.593055725098
-36.89953270892306,131.24315686766715,12048.950592041016
-36.88804693145167,131.24085772036207,12049.31030845642
-36.876561153980276,131.23859340862222,12049.664211273193
-36.86507537650889,131.236346514665,12050.024654388428
-36.8535895990375,131.23406478514255,12050.380010604858
-36.84210382156611,131.23183530896793,12050.738273620605
-36.83062556096479,131.22957099722808,12051.09871673584
-36.819139783493405,131.22730668548826,12051.4547996521
-36.80766152289209,131.225059791531,12051.813789367676
-36.79616822855063,131.22284773313902,12052.172052383423
-36.78469748481938,131.2206182569644,12052.53031539917
-36.77321170734799,131.21838878078978,12052.889305114746
-36.761733446746675,131.21615930461516,12053.24974822998
-36.75025518614536,131.21392982844057,12053.608737945557
-36.73876940867397,131.21173518783118,12053.967727661133
-36.72730618181279,131.20947087609133,12054.328170776367
-36.71582792121148,131.20727623548194,12054.688613891602
-36.70434214374009,131.20508159487255,12055.047603607178
-36.69287891687892,131.20285211869793,12055.408773422241
-36.6814006562776,131.20069231365378,12055.769943237305
-36.66992991254636,131.1984976730444,12056.130386352539
-36.658466685685184,131.1962856146524,12056.487922668457
-36.64698842508387,131.19412580960824,12056.851272583008
-36.635525198222695,131.19198342234668,12057.2131690979
-36.62405445449146,131.1897713639547,12057.572158813477
-36.61258371076021,131.18761155891053,12057.935508728027
-36.60112048389904,131.18545175386637,12058.295951843262
-36.58965725703787,131.18327453103961,12058.658575057983
-36.57817899643655,131.18114956156066,12059.020471572876
-36.56672328644545,131.17900717429913,12059.38164138794
-36.555260059584285,131.17684736925497,12059.74499130249
-36.54379683272311,131.17477465312388,12060.106887817383
-36.532341122732014,131.1725800125145,12060.471691131592
-36.52087789587084,131.17045504303556,12060.831407546997
-36.509407152139595,131.16833007355663,12061.195484161377
-36.4979514421485,131.16625735742554,12061.559560775757
-36.4864957321574,131.164114970164,12061.92073059082
-36.47503250529623,131.16195516511985,12062.286987304688
-36.46357679530513,131.15988244898875,12062.64961051941
-36.45212108531403,131.15777489729246,12063.015867233276
-36.44067289219301,131.15568476337873,12063.37703704834
-36.42921718220191,131.15361204724766,12063.741840362549
-36.417768989080884,131.15150449555134,12064.106643676758
-36.406305762219716,131.14946661498547,12064.471446990967
-36.39486508596876,131.1473938988544,12064.836250305176
-36.38342440971781,131.14528634715808,12065.201053619385
-36.37196869972671,131.14321363102698,12065.565856933594
-36.36052050660569,131.1411409148959,12065.932113647461
-36.349064796614584,131.13910303433005,12066.29619026184
-36.337624120363635,131.13704773598158,12066.663173675537
-36.32618344411268,131.13507952654618,12067.027976989746
-36.31473525099166,131.13293713928462,12067.39714050293
-36.303287057870634,131.13091667650139,12067.759763717651
-36.291853898489755,131.12886137815292,12068.126747131348
-36.28040570536873,131.12685833315228,12068.495910644531
-36.26896502911777,131.12483787036902,12068.86071395874
-36.257531869736894,131.12278257202055,12069.229877471924
-36.246091193485945,131.12084919815038,12069.596134185791
-36.23464300036492,131.11877648201929,12069.963844299316
-36.22320984098404,131.11680827258388,12070.330101013184
-36.21177668160316,131.11478780980065,12070.699264526367
-36.200343522222276,131.11281960036524,12071.066974639893
-36.1889103628414,131.1108165553646,12071.435411453247
-36.17747720346052,131.1088309281466,12071.80530166626
-36.16605156094971,131.1068801364938,12072.171558380127
-36.15461840156883,131.1048945092758,12072.539995193481
-36.143192759058024,131.1029088820578,12072.910612106323
-36.131752082807076,131.10092325483976,12073.278322219849
-36.12032644029627,131.09898988096958,12073.648212432861
-36.10890831465554,131.0970390893168,12074.016649246216
-36.09747515527466,131.09510571544664,12074.387266159058
-36.08605702963392,131.09315492379383,12074.75715637207
-36.07463138712311,131.09120413214106,12075.127046585083
-36.06321326148238,131.08927075827089,12075.496936798096
-36.051787618971574,131.0873548021833,12075.869007110596
-36.040361976460765,131.0854910994436,12076.23817062378
-36.028943850820035,131.08348805444297,12076.608787536621
-36.017525725179304,131.08162435170325,12076.979404449463
-36.00611511640864,131.07970839561568,12077.352201461792
-35.994696990767906,131.0777750217455,12077.721364974976
-35.9832713482571,131.07592873678843,12078.094161987305
-35.97185322261637,131.07397794513562,12078.464778900146
-35.96045013071578,131.07207940683068,12078.837575912476
-35.94903200507505,131.07023312187357,12079.208919525146
-35.93762891317446,131.06835200135126,12079.582443237305
-35.9262183044038,131.06647088082892,12079.955966949463
-35.91480769563314,131.06457234252397,12080.326583862305
-35.903397086862476,131.0627434753495,12080.70228767395
-35.891986478091816,131.06086235482715,12081.070724487305
-35.880598419931374,131.05903348765267,12081.444248199463
-35.869180294290636,131.05716978491296,12081.820678710938
-35.85777720239005,131.05535833552108,12082.194929122925
-35.846381627359534,131.0535468861292,12082.567726135254
-35.834971018588874,131.05173543673732,12082.941249847412
-35.823567926688284,131.049854316215,12083.317680358887
-35.8121648347877,131.04804286682312,12083.689023971558
-35.80076925975718,131.04623141743124,12084.066181182861
-35.78937368472667,131.04441996803936,12084.43970489502
-35.77797810969615,131.04260851864748,12084.814682006836
-35.76658253466564,131.04083190482083,12085.19183921814
-35.755186959635125,131.03902045542898,12085.566089630127
-35.743783867734535,131.0372090060371,12085.939613342285
-35.732403326444164,131.03546722777568,12086.318223953247
-35.72100775141365,131.03362094281857,12086.693201065063
-35.70961217638314,131.03187916455715,12087.068904876709
-35.6982241182227,131.0300851329479,12087.445335388184
-35.686843576932326,131.02832593690385,12087.822492599487
-35.675455518771884,131.0266538297729,12088.199649810791
-35.66406746061144,131.02477270925058,12088.576080322266
-35.65268691932107,131.02310060211963,12088.95323753357
-35.64129886116063,131.0213588238582,12089.330394744873
-35.629918319870264,131.01958221003156,12089.709005355835
-35.61854529544996,131.01787526733537,12090.086162567139
-35.60714972041945,131.01616832463918,12090.464046478271
-35.595776695999156,131.01440912859513,12090.842657089233
-35.584403671578855,131.01271960368157,12091.221267700195
-35.57302313028849,131.01096040763753,12091.602058410645
-35.56164258899812,131.0093405538544,12091.97776222229
-35.550269564577825,131.00756394002778,12092.35855293274
-35.53889654015752,131.0058744151142,12092.737163543701
-35.52752351573723,131.00420230798323,12093.116500854492
-35.516158008187006,131.00253020085228,12093.496564865112
-35.50478498376671,131.00085809372132,12093.875902175903
-35.49341947621649,130.9991337332425,12094.255966186523
-35.48204645179619,130.99751387945938,12094.636756896973
-35.47068094424597,130.99582435454582,12095.017547607422
-35.459315436695746,130.9941870829801,12095.396884918213
-35.44794992914552,130.99256722919696,12095.77912902832
-35.43659193846537,130.99087770428338,12096.161373138428
-35.425233947785216,130.98924043271765,12096.53998374939
-35.41386844023499,130.98760316115192,12096.922954559326
-35.402510449554846,130.9859658895862,12097.304471969604
-35.39115245887469,130.98434603580307,12097.685262680054
-35.37978695132447,130.98272618201995,12098.06823348999
-35.36843647751439,130.98115858158468,12098.450477600098
-35.35707848683424,130.97948647445372,12098.833448410034
-35.345728013024164,130.9778840384532,12099.214965820312
-35.33437002234402,130.97631643801793,12099.600116729736
-35.32302706540401,130.97474883758267,12099.980907440186
-35.31167659159393,130.97314640158214,12100.36533164978
-35.300326117783854,130.97154396558165,12100.748302459717
-35.28897564397378,130.96999378292898,12101.131999969482
-35.27763268703377,130.96840876471109,12101.515697479248
-35.26627469635362,130.96687599984105,12101.900848388672
-35.25493925628369,130.96530839940576,12102.284545898438
-35.243596299343686,130.9637582167531,12102.668243408203
-35.23225334240368,130.96222545188306,12103.054847717285
-35.220910385463675,130.9606752692304,12103.439998626709
-35.20958246226382,130.95910766879513,12103.822969436646
-35.19823950532381,130.95757490392506,12104.210300445557
-35.186904065253884,130.95605955683763,12104.59545135498
-35.17556862518395,130.95457904531543,12104.980602264404
-35.164233185114014,130.95302886266276,12105.368659973145
-35.152897745044086,130.95151351557533,12105.753810882568
-35.14156982184423,130.95001558627052,12106.14041519165
-35.130241898644364,130.94855249253092,12106.527019500732
-35.118906458574436,130.94705456322612,12106.913623809814
-35.10758605224465,130.94555663392129,12107.301681518555
-35.09625061217472,130.94407612239908,12107.688285827637
-35.084930205844934,130.94261302865948,12108.077796936035
-35.073602282645076,130.94113251713728,12108.464401245117
-35.06228187631529,130.93963458783247,12108.853912353516
-35.0509614699855,130.9382063296581,12109.240516662598
-35.03962602991557,130.93677807148373,12109.628574371338
-35.02831314045586,130.93531497774416,12110.018085479736
-35.01700776786622,130.93383446622195,12110.407596588135
-35.0056948784065,130.9324410436128,12110.795654296875
-34.994374472076714,130.93099536765584,12111.185165405273
-34.983054065746934,130.92961936282933,12111.574676513672
-34.97173365941715,130.92817368687233,12111.96418762207
-34.96042828682751,130.92678026426321,12112.353698730469
-34.94911539736779,130.92538684165407,12112.746116638184
-34.93781002477815,130.9239585834797,12113.134174346924
-34.926497135318435,130.92256516087056,12113.52586555481
-34.915184245858725,130.92117173826145,12113.917556762695
-34.90388639013916,130.9197783156523,12114.307794570923
-34.89258853441959,130.9184197286084,12114.699485778809
-34.88128316182995,130.9170611415645,12115.090450286865
-34.86997778924031,130.91570255452058,12115.482141494751
-34.85867993352074,130.91434396747667,12115.873106002808
-34.84738207780118,130.9129853804328,12116.26697731018
-34.83608422208161,130.91162679338888,12116.658668518066
-34.82478636636204,130.91026820634497,12117.049633026123
-34.81348851064247,130.90897929043152,12117.444957733154
-34.80219817179298,130.90765553895284,12117.83737564087
-34.79090783294348,130.90629695190893,12118.231246948242
-34.77961749409399,130.90497320043025,12118.624391555786
-34.7683271552445,130.90363203116897,12119.01753616333
-34.75704433326507,130.90237795082075,12119.411407470703
-34.74574647754551,130.90107161712467,12119.806005477905
-34.73446365556609,130.89976528342862,12120.200603485107
-34.72318083358667,130.89849378529777,12120.59447479248
-34.71189801160724,130.8971700338191,12120.99052619934
-34.70061518962782,130.89591595347088,12121.385124206543
-34.689339884518475,130.89466187312266,12121.781175613403
-34.678057062539054,130.89333812164398,12122.177227020264
-34.6667817574297,130.892118876861,12122.571098327637
-34.65550645232035,130.89088221429537,12122.967876434326
-34.644231147211,130.88962813394716,12123.363201141357
-34.63296335897173,130.88840888916417,12123.761432647705
-34.62168053699231,130.88713739103332,12124.156757354736
-34.610420265623105,130.88591814625033,12124.553535461426
-34.599144960513755,130.88469890146735,12124.950313568115
-34.58787717227448,130.88347965668436,12125.348545074463
-34.57660938403521,130.88226041190137,12125.74677658081
-34.56534159579593,130.88105858490098,12126.1435546875
-34.5540888412968,130.87989159346583,12126.541059494019
-34.54281353618745,130.87867234868284,12126.940017700195
-34.53155326481825,130.87748793946508,12127.339702606201
-34.52030051031912,130.87632094802993,12127.739387512207
-34.509040238949915,130.87513653881217,12128.134712219238
-34.49777996758071,130.87396954737702,12128.535850524902
-34.48652721308158,130.87280255594186,12128.936262130737
-34.475274458582454,130.8716355645067,12129.335220336914
-34.46402922095339,130.87048599085418,12129.736358642578
-34.45276894958419,130.86935383498425,12130.134590148926
-34.441523711955135,130.86822167911433,12130.534275054932
-34.430270957456,130.86710694102703,12130.935413360596
-34.419033236697025,130.8659573673745,12131.33655166626
-34.40778799906796,130.86484262928718,12131.736963272095
-34.39653524456884,130.8637278911999,12132.138101577759
-34.385290006939776,130.86261315311256,12132.540693283081
-34.37405228618079,130.86151583280787,12132.941831588745
-34.36281456542181,130.86048818363363,12133.343696594238
-34.35157684466282,130.8593386099811,12133.747741699219
-34.34033912390384,130.85827612524164,12134.147426605225
-34.32910892001493,130.85717880493695,12134.552198410034
-34.31787119925595,130.85609890241486,12134.953336715698
-34.30664099536703,130.8550364176754,12135.358108520508
-34.295410791478126,130.85400876850116,12135.762153625488
-34.28418058758921,130.85296370154433,12136.164018630981
-34.2729503837003,130.85186638123963,12136.568790435791
-34.26172017981139,130.8508735676306,12136.972835540771
-34.250497492792555,130.84982850067377,12137.37833404541
-34.23926728890364,130.84873118036907,12137.781652450562
-34.228044601884804,130.84782545567313,12138.1871509552
-34.21682943173604,130.84672813536844,12138.590469360352
-34.20561426158727,130.8457179039768,12138.99669456482
-34.19438405769836,130.84477734371566,12139.401466369629
-34.1831688875496,130.84376711232403,12139.807691574097
-34.1719612342709,130.8427568809324,12140.214643478394
-34.16074606412214,130.84181632067123,12140.619415283203
-34.14953841084345,130.84082350706223,12141.0263671875
-34.13832324069468,130.83986552901845,12141.436225891113
-34.127115587415986,130.83889013319205,12141.840270996094
-34.1159079341373,130.83791473736565,12142.250129699707
-34.10470779772867,130.83692192375665,12142.656354904175
-34.09350014444998,130.83603361684334,12143.061126708984
-34.08229249117129,130.83509305658217,12143.473165512085
-34.07109235476267,130.834152496321,12143.879390716553
-34.05989221835405,130.83322935384246,12144.287796020508
-34.0486995988155,130.83234104692912,12144.696201324463
-34.037491945536814,130.83136565110274,12145.107513427734
-34.02629932599827,130.83052959753726,12145.513738632202
-34.01509918958965,130.8295890372761,12145.925050735474
-34.00392160379124,130.82873556592799,12146.335636138916
