Latitude,Longitude,Altitude (m)
-41.550926,44.532154,11955.6045
-41.53327,44.519855,11956.013
-41.51562,44.50757,11956.423
-41.497986,44.496716,11956.806
-41.480377,44.486343,11957.183
-41.462765,44.475975,11957.561
-41.445145,44.4656,11957.934
-41.427536,44.45524,11958.314
-41.409916,44.444855,11958.686
-41.392303,44.43448,11959.063
-41.374687,44.42411,11959.439
-41.35711,44.41411,11959.781
-41.339874,44.403778,11960.146
-41.322983,44.393177,11960.531
-41.30609,44.382557,11960.917
-41.289204,44.371964,11961.303
-41.272316,44.36134,11961.685
-41.25542,44.350742,11962.071
-41.238537,44.340126,11962.457
-41.221645,44.329533,11962.842
-41.20476,44.318913,11963.228
-41.187878,44.308304,11963.612
-41.171146,44.2979,11964.024
-41.154438,44.28751,11964.436
-41.137737,44.277115,11964.852
-41.12103,44.26674,11965.264
-41.10432,44.256348,11965.678
-41.08762,44.245956,11966.091
-41.070908,44.23558,11966.502
-41.054207,44.225197,11966.919
-41.0375,44.21481,11967.332
-41.020794,44.204407,11967.743
-41.004086,44.194023,11968.156
-40.98738,44.18364,11968.571
-40.970676,44.173244,11968.985
-40.953968,44.16287,11969.399
-40.937275,44.15249,11969.813
-40.920555,44.142086,11970.223
-40.903896,44.131805,11970.656
-40.887493,44.121822,11971.179
-40.8711,44.11183,11971.698
-40.854702,44.101845,11972.217
-40.8383,44.09184,11972.737
-40.821903,44.081863,11973.257
-40.805603,44.072407,11973.797
-40.78929,44.063034,11974.342
-40.773026,44.05395,11974.85
-40.756668,44.044872,11975.436
-40.740383,44.035088,11975.928
-40.724174,44.02634,11976.412
-40.70816,44.018826,11977.01
-40.692646,44.008305,11977.506
-40.677433,44.002903,11977.8
-40.66194,43.995968,11978.693
-40.646168,43.988617,11978.496
-40.6308,43.98232,11979.405
-40.615963,43.976597,11980.476
-40.60144,43.97142,11981.105
-40.5869,43.96697,11981.742
-40.572365,43.963024,11982.37
-40.55796,43.95906,11982.985
-40.543644,43.95515,11983.612
-40.529335,43.95126,11984.238
-40.515026,43.947372,11984.862
-40.500732,43.94347,11985.487
-40.48648,43.93944,11986.1
-40.472237,43.935417,11986.714
-40.458027,43.931316,11987.318
-40.44428,43.926125,11987.845
-40.430737,43.92082,11988.336
-40.417374,43.915443,11988.803
-40.404007,43.910053,11989.264
-40.390648,43.904663,11989.7295
-40.377277,43.899277,11990.193
-40.36392,43.89388,11990.657
-40.35055,43.888504,11991.12
-40.337185,43.883118,11991.585
-40.32381,43.87803,11992.058
-40.31045,43.872917,11992.53
-40.297073,43.867825,11993.001
-40.283707,43.862732,11993.479
-40.270348,43.857628,11993.95
-40.256977,43.85252,11994.426
-40.243607,43.84744,11994.897
-40.23025,43.842323,11995.372
-40.217266,43.83714,11995.901
-40.20444,43.832745,11996.455
-40.191685,43.82874,11997.023
-40.17892,43.824768,11997.588
-40.16617,43.820763,11998.155
-40.153408,43.816776,11998.724
-40.140663,43.812782,11999.288
-40.1279,43.8088,11999.856
-40.11517,43.80459,12000.421
-40.10244,43.80036,12000.986
-40.089714,43.79613,12001.548
-40.076996,43.791912,12002.113
-40.064262,43.787674,12002.678
-40.051537,43.78346,12003.243
-40.038807,43.77922,12003.806
-40.026077,43.775,12004.371
-40.013367,43.770775,12004.935
-40.00063,43.76655,12005.501
-39.987907,43.762318,12006.064
-39.9752,43.7581,12006.625
-39.962517,43.754,12007.195
-39.949394,43.75002,12007.641
-39.935932,43.746952,12007.851
-39.922127,43.74415,12008.089
-39.90824,43.74092,12008.181
-39.894295,43.737892,12008.179
-39.88104,43.737408,12008.341
-39.868813,43.73492,12008.282
-39.85675,43.733948,12007.942
-39.844376,43.73334,12008.156
-39.831577,43.73142,12007.425
-39.81835,43.72955,12007.706
-39.805157,43.728844,12008.394
-39.79223,43.728374,12008.937
-39.77944,43.727562,12008.888
-39.766632,43.7267,12008.834
-39.754166,43.7264,12008.835
-39.742233,43.726753,12008.921
-39.730305,43.727116,12009.008
-39.71837,43.727448,12009.095
-39.706444,43.727795,12009.179
-39.69451,43.72817,12009.266
-39.682636,43.72805,12009.333
-39.670753,43.728,12009.406
-39.658863,43.727905,12009.473
-39.64701,43.72771,12009.566
-39.6352,43.727333,12009.688
-39.623337,43.727364,12009.852
-39.611454,43.72741,12010.014
-39.59956,43.727448,12010.18
-39.58768,43.727524,12010.342
-39.5758,43.727573,12010.504
-39.564003,43.727703,12010.712
-39.552406,43.727993,12011.021
-39.540802,43.7283,12011.327
-39.529194,43.72862,12011.64
-39.517597,43.7289,12011.944
-39.505993,43.72921,12012.253
-39.49438,43.729515,12012.5625
-39.482784,43.729824,12012.869
-39.47118,43.730118,12013.178
-39.45957,43.730408,12013.486
-39.448025,43.730972,12013.805
-39.436493,43.73156,12014.119
-39.424953,43.732143,12014.435
-39.41342,43.732723,12014.751
-39.402153,43.733006,12015.094
-39.391075,43.733093,12015.452
-39.379986,43.733173,12015.815
-39.3689,43.73326,12016.176
-39.35782,43.733368,12016.534
-39.346733,43.73345,12016.896
-39.33558,43.734005,12017.23
-39.324314,43.735176,12017.527
-39.31305,43.736343,12017.826
-39.30188,43.737602,12018.17
-39.290825,43.73895,12018.566
-39.27978,43.740288,12018.965
-39.268726,43.741653,12019.364
-39.257687,43.74238,12019.764
-39.24664,43.74289,12020.168
-39.235596,43.743374,12020.573
-39.224598,43.743786,12020.988
-39.21361,43.744003,12021.408
-39.20278,43.7445,12021.792
-39.19212,43.745037,12022.289
-39.18145,43.744453,12022.833
-39.170628,43.74422,12023.19
-39.159306,43.746162,12023.663
-39.148315,43.74662,12024.134
-39.137875,43.745983,12024.689
-39.127224,43.74796,12025.884
-39.11744,43.750183,12026.323
-39.107597,43.751995,12026.077
-39.097054,43.752914,12027.172
-39.08652,43.753906,12028.219
-39.07603,43.754948,12029.237
-39.065514,43.756413,12030.293
-39.05499,43.758,12031.359
-39.044456,43.75958,12032.43
-39.033936,43.76114,12033.496
-39.0234,43.762733,12034.562
-39.01293,43.764103,12035.623
-39.00255,43.76519,12036.671
-38.992165,43.766277,12037.723
-38.981785,43.767387,12038.7705
-38.971397,43.768463,12039.823
-38.961018,43.769573,12040.871
-38.95063,43.770657,12041.921
-38.940247,43.771774,12042.97
-38.929863,43.772858,12044.0205
-38.919945,43.77561,12045.128
-38.91014,43.778732,12046.249
-38.900417,43.781807,12047.322
-38.890694,43.78485,12048.394
-38.880962,43.787926,12049.467
-38.87126,43.790924,12050.547
-38.86157,43.793865,12051.64
-38.851917,43.796715,12052.722
-38.84239,43.799248,12053.76
-38.83286,43.801777,12054.799
-38.823326,43.8043,12055.839
-38.813816,43.806934,12056.864
-38.804478,43.809204,12057.846
-38.79513,43.811447,12058.831
-38.785797,43.81369,12059.815
-38.77646,43.815964,12060.794
-38.767117,43.818317,12061.771
-38.757538,43.820854,12062.761
-38.747856,43.823452,12063.741
-38.738087,43.82622,12064.714
-38.728275,43.82913,12065.684
-38.71852,43.83199,12066.643
-38.708797,43.834652,12067.595
-38.699074,43.837223,12068.556
-38.689346,43.839798,12069.517
-38.679623,43.842384,12070.479
-38.670025,43.84562,12071.3955
-38.660427,43.84887,12072.313
-38.65082,43.8521,12073.235
-38.641254,43.855164,12074.169
-38.63185,43.85802,12075.111
-38.622444,43.860886,12076.057
-38.61304,43.863773,12076.999
-38.603653,43.866634,12077.946
-38.59418,43.869534,12078.898
-38.584576,43.8719,12079.848
-38.575207,43.87534,12080.675
-38.566113,43.879173,12081.872
-38.558025,43.88146,12083.13
-38.55031,43.88144,12084.32
-38.540607,43.887146,12085.6
-38.531204,43.88996,12086.583
-38.52024,43.890514,12087.773
-38.50895,43.892357,12090.641
-38.498524,43.896133,12091.755
-38.48869,43.901497,12092.382
-38.47928,43.906548,12092.17
-38.46963,43.9116,12092.256
-38.459988,43.916637,12092.343
-38.45035,43.921677,12092.427
-38.440712,43.926723,12092.512
-38.431072,43.93177,12092.601
-38.421562,43.936413,12092.684
-38.41322,43.942295,12092.487
-38.405094,43.948597,12092.232
-38.396954,43.95489,12091.972
-38.388836,43.961193,12091.715
-38.3807,43.967472,12091.454
-38.37257,43.97363,12091.166
-38.364452,43.97964,12090.851
-38.356342,43.985672,12090.535
-38.348225,43.99168,12090.22
-38.340103,43.997692,12089.905
-38.331993,44.00371,12089.59
-38.32387,44.00973,12089.273
-38.31576,44.015755,12088.96
-38.307636,44.021774,12088.641
-38.299526,44.027782,12088.325
-38.29141,44.033806,12088.008
-38.28329,44.03983,12087.694
-38.275173,44.04585,12087.38
-38.26696,44.052277,12086.992
-38.258564,44.05828,12086.604
-38.250153,44.064266,12086.215
-38.24173,44.070244,12085.826
-38.23337,44.076416,12085.439
-38.225082,44.082874,12085.197
-38.21681,44.089375,12085.011
-38.208538,44.095894,12084.826
-38.200264,44.102417,12084.642
-38.191994,44.10893,12084.46
-38.183887,44.115257,12084.247
-38.175797,44.12157,12084.034
-38.16771,44.127895,12083.822
-38.159622,44.134205,12083.606
-38.151543,44.140522,12083.396
-38.143448,44.146847,12083.181
-38.135326,44.153202,12082.954
-38.12687,44.15992,12082.6045
-38.118404,44.16665,12082.258
-38.109943,44.173363,12081.909
-38.10149,44.180103,12081.563
-38.09319,44.18741,12081.237
-38.085075,44.195362,12080.929
-38.076973,44.20333,12080.624
-38.0688,44.211197,12080.324
-38.06049,44.218533,12080.021
-38.052185,44.22572,12079.657
-38.04442,44.233273,12079.513
-38.0375,44.239925,12079.666
-38.03111,44.24628,12079.669
-38.0232,44.255768,12079.745
-38.012913,44.26613,12079.316
-38.00259,44.271095,12079.232
-37.99211,44.274567,12080.36
-37.98598,44.27636,12081.132
-37.980587,44.28656,12080.063
-37.975487,44.298027,12079.836
-37.969276,44.308865,12078.826
-37.96146,44.31488,12080.805
-37.953636,44.320896,12082.783
-37.945786,44.326717,12084.768
-37.937866,44.332207,12086.75
-37.929913,44.3372,12088.73
-37.921844,44.342083,12090.683
-37.913784,44.346786,12092.62
-37.90618,44.3528,12094.607
-37.8985,44.359245,12096.544
-37.890804,44.365677,12098.483
-37.883125,44.372116,12100.419
-37.87544,44.378403,12102.347
-37.867756,44.384586,12104.269
-37.86009,44.390762,12106.189
-37.8525,44.396835,12108.095
-37.845085,44.402786,12109.96
-37.837627,44.408813,12111.8125
-37.830177,44.414837,12113.662
-37.82275,44.4208,12115.511
-37.815327,44.42666,12117.358
-37.807907,44.43253,12119.201
-37.80049,44.438385,12121.046
-37.793068,44.444263,12122.892
-37.785645,44.45013,12124.732
-37.778217,44.456,12126.583
-37.7708,44.46187,12128.426
-37.763348,44.467846,12130.263
-37.75588,44.473972,12132.102
-37.748383,44.480057,12133.938
-37.74091,44.486153,12135.774
-37.733425,44.492275,12137.612
-37.72594,44.498367,12139.448
-37.718464,44.50448,12141.286
-37.710976,44.510567,12143.12
-37.70356,44.51648,12144.915
-37.69615,44.52236,12146.705
-37.688683,44.527897,12148.513
-37.681187,44.53336,12150.324
-37.6737,44.53883,12152.138
-37.666237,44.545166,12153.933
-37.658787,44.55216,12155.717
-37.65133,44.55917,12157.503
-37.643887,44.566025,12159.29
-37.636494,44.57263,12161.077
-37.62909,44.57924,12162.86
-37.621674,44.58587,12164.654
-37.614357,44.593105,12166.405
-37.607113,44.600796,12168.139
-37.599846,44.608387,12169.862
-37.592606,44.615784,12171.574
-37.58538,44.62333,12173.26
-37.5782,44.63034,12175.185
-37.571022,44.6356,12176.896
-37.564247,44.64134,12178.691
-37.55796,44.648296,12181.134
-37.556374,44.64763,12184.585
-37.554817,44.649433,12187.792
-37.550896,44.65719,12191.297
-37.541016,44.67142,12193.664
-37.53118,44.672348,12198.213
-37.51911,44.675842,12204.2
-37.50955,44.678524,12209.941
-37.501995,44.68925,12210.272
-37.494446,44.69996,12210.6
-37.486874,44.71069,12210.932
-37.47933,44.721413,12211.263
-37.471783,44.73213,12211.587
-37.464226,44.742855,12211.92
-37.45669,44.75362,12212.246
-37.449158,44.76435,12212.58
-37.44161,44.775043,12212.9375
-37.434002,44.785885,12213.312
-37.426384,44.7967,12213.693
-37.41877,44.80753,12214.064
-37.41116,44.818348,12214.439
-37.40354,44.82918,12214.815
-37.395992,44.839985,12215.161
-37.38854,44.85076,12215.47
-37.38108,44.861526,12215.782
-37.373615,44.8723,12216.086
-37.366158,44.883083,12216.394
-37.358692,44.893867,12216.701
-37.35124,44.904636,12216.999
-37.343777,44.915436,12217.294
-37.336357,44.92646,12217.575
-37.329105,44.9385,12217.818
-37.321857,44.950535,12218.058
-37.31519,44.96124,12218.207
-37.308537,44.971897,12218.357
-37.301872,44.98256,12218.505
-37.29522,44.99325,12218.651
-37.288567,45.003918,12218.8
-37.28191,45.014572,12218.946
-37.27525,45.025253,12219.096
-37.26861,45.03592,12219.242
-37.261948,45.04659,12219.39
-37.2553,45.05726,12219.536
-37.248634,45.067936,12219.686
-37.241974,45.07859,12219.832
-37.23532,45.089245,12219.9795
-37.228546,45.10014,12220.111
-37.221737,45.11107,12220.242
-37.21492,45.121956,12220.36
-37.20777,45.13065,12220.261
-37.20062,45.13932,12220.162
-37.19346,45.14801,12220.063
-37.186317,45.156693,12219.965
-37.179153,45.165382,12219.863
-37.17201,45.174026,12219.759
-37.164867,45.182564,12219.642
-37.157593,45.19098,12219.527
-37.150345,45.198883,12219.408
-37.143173,45.207096,12219.267
-37.13672,45.21473,12219.444
-37.130775,45.221558,12219.387
-37.125042,45.229046,12219.396
-37.11641,45.240147,12219.288
-37.109085,45.245758,12219.103
-37.098927,45.25735,12219.213
-37.091713,45.262035,12220.359
-37.08491,45.272655,12219.297
-37.07853,45.28199,12219.03
-37.072613,45.291195,12217.472
-37.066303,45.29936,12216.594
-37.059814,45.306282,12216.531
-37.05333,45.31321,12216.471
-37.04685,45.320152,12216.406
-37.040363,45.327084,12216.343
-37.03387,45.333992,12216.282
-37.027386,45.340942,12216.22
-37.0209,45.34787,12216.157
-37.014233,45.354908,12216.092
-37.00744,45.362053,12216.029
-37.000652,45.369194,12215.968
-36.993866,45.37633,12215.908
-36.987072,45.383465,12215.847
-36.98028,45.3906,12215.785
-36.973495,45.397743,12215.724
-36.9667,45.404873,12215.663
-36.9599,45.412,12215.6
-36.953114,45.419144,12215.541
-36.946335,45.426285,12215.48
-36.939575,45.433456,12215.425
-36.932808,45.440624,12215.367
-36.92604,45.447807,12215.311
-36.919273,45.454967,12215.256
-36.912518,45.462124,12215.196
-36.90574,45.469307,12215.142
-36.89898,45.47647,12215.086
-36.892216,45.48365,12215.026
-36.885452,45.490795,12214.97
-36.87868,45.497963,12214.915
-36.87192,45.50513,12214.861
-36.865154,45.5123,12214.801
-36.858387,45.519466,12214.744
-36.85162,45.526634,12214.6875
-36.844868,45.53381,12214.634
-36.838093,45.54099,12214.577
-36.831326,45.548134,12214.52
-36.824562,45.555305,12214.463
-36.817806,45.562473,12214.406
-36.811043,45.56965,12214.35
-36.80427,45.576813,12214.292
-36.797504,45.583977,12214.236
-36.790745,45.591145,12214.18
-36.783985,45.598312,12214.124
-36.777218,45.605484,12214.07
-36.77046,45.612644,12214.008
-36.763687,45.619823,12213.955
-36.756924,45.626972,12213.899
-36.75016,45.634136,12213.843
-36.743397,45.641308,12213.783
-36.736557,45.648323,12213.747
-36.72956,45.65478,12213.696
-36.722397,45.661205,12213.554
-36.715862,45.667404,12213.733
-36.71129,45.67098,12214.275
-36.708717,45.672653,12214.891
-36.70487,45.677944,12215.592
-36.698845,45.682846,12216.158
-36.69065,45.687874,12217.13
-36.680813,45.691822,12219.726
-36.67288,45.69246,12222.153
-36.665077,45.699615,12223.1045
-36.658546,45.70594,12223.051
-36.65203,45.715538,12221.53
-36.645275,45.723854,12220.746
-36.638508,45.732185,12219.965
-36.631744,45.740513,12219.187
-36.624973,45.74883,12218.404
-36.61821,45.75715,12217.621
-36.61145,45.765564,12216.84
-36.604725,45.77426,12216.058
-36.598057,45.782967,12215.254
-36.5914,45.79164,12214.448
-36.584755,45.800354,12213.6455
-36.57809,45.80906,12212.844
-36.57144,45.81776,12212.041
-36.564774,45.82647,12211.24
-36.55813,45.835182,12210.44
-36.551464,45.84387,12209.636
-36.544815,45.852573,12208.833
-36.53816,45.861256,12208.03
-36.5315,45.869972,12207.226
-36.52485,45.878677,12206.426
-36.518196,45.887367,12205.622
-36.511536,45.896084,12204.821
-36.50488,45.904778,12204.018
-36.498226,45.913486,12203.213
-36.491573,45.92218,12202.413
-36.48491,45.930885,12201.61
-36.47826,45.939575,12200.809
-36.471603,45.948334,12200.007
-36.464893,45.957462,12199.226
-36.458218,45.966873,12198.459
-36.45159,45.976585,12197.696
-36.444984,45.986702,12196.929
-36.438347,45.997066,12196.154
-36.43168,46.00765,12195.388
-36.42499,46.018375,12194.627
-36.418304,46.029057,12193.867
-36.411602,46.039783,12193.107
-36.40491,46.05048,12192.35
-36.398212,46.06119,12191.59
-36.39153,46.071888,12190.829
-36.38484,46.082573,12190.069
-36.378143,46.093296,12189.31
-36.371452,46.10398,12188.549
-36.364758,46.11468,12187.789
-36.35806,46.125393,12187.031
-36.35137,46.136105,12186.2705
-36.34468,46.146793,12185.511
-36.337963,46.15781,12184.729
-36.331223,46.169098,12183.931
-36.324734,46.178967,12183.353
-36.318268,46.188313,12182.885
-36.311848,46.196644,12182.364
-36.305214,46.206364,12181.825
-36.299187,46.215725,12181.654
-36.294235,46.22317,12181.271
-36.28885,46.232567,12180.912
-36.280663,46.24592,12180.257
-36.27322,46.254124,12179.668
-36.26491,46.26474,12179.333
-36.259052,46.269634,12179.889
-36.252586,46.282757,12178.737
-36.24702,46.292667,12177.436
-36.240868,46.304768,12175.63
-36.234367,46.314358,12175.111
-36.22787,46.32399,12174.595
-36.221375,46.3336,12174.079
-36.215015,46.342865,12173.434
-36.208664,46.35214,12172.786
-36.202335,46.361294,12172.149
-36.196003,46.370384,12171.506
-36.189663,46.379456,12170.864
-36.18334,46.38855,12170.227
-36.177002,46.39763,12169.583
-36.17069,46.40672,12168.942
-36.16435,46.415802,12168.303
-36.158016,46.42488,12167.663
-36.15169,46.433987,12167.024
-36.14536,46.443054,12166.382
-36.139027,46.452267,12165.7295
-36.13269,46.461655,12165.067
-36.12635,46.471016,12164.405
-36.120018,46.480404,12163.741
-36.113667,46.489777,12163.082
-36.107346,46.499126,12162.413
-36.101,46.50837,12161.744
-36.094666,46.51766,12161.071
-36.08833,46.5269,12160.401
-36.081993,46.536175,12159.733
-36.075634,46.545635,12159.05
-36.069237,46.555683,12158.333
-36.062748,46.565,12157.642
-36.05617,46.57342,12156.988
-36.04958,46.581707,12156.338
-36.042976,46.589977,12155.69
-36.03638,46.598263,12155.038
-36.029793,46.606537,12154.39
-36.023193,46.61481,12153.74
-36.016678,46.62355,12153.072
-36.010387,46.633675,12152.352
-36.00412,46.643814,12151.627
-35.997837,46.653942,12150.904
-35.991554,46.66409,12150.182
-35.985283,46.674232,12149.456
-35.978992,46.684372,12148.732
-35.972607,46.694714,12148.035
-35.966072,46.70539,12147.376
-35.95949,46.716187,12146.727
-35.95291,46.72696,12146.073
-35.94633,46.737698,12145.418
-35.939766,46.748436,12144.759
-35.933186,46.759167,12144.101
-35.926655,46.769863,12143.47
-35.920082,46.780643,12142.87
-35.913387,46.790592,12142.275
-35.906685,46.80007,12141.488
-35.900116,46.81131,12140.809
-35.894024,46.820683,12140.597
-35.88874,46.827145,12140.197
-35.88205,46.84008,12139.469
-35.87351,46.85424,12138.692
-35.86609,46.863075,12137.785
-35.8588,46.87243,12137.864
-35.851925,46.87922,12138.157
-35.846043,46.889587,12136.372
-35.8401,46.9004,12134.727
-35.83493,46.906013,12134.137
-35.82976,46.911594,12133.545
-35.824596,46.917217,12132.956
-35.81943,46.92281,12132.366
-35.814213,46.928406,12131.793
-35.80895,46.93397,12131.212
-35.803658,46.939457,12130.626
-35.798298,46.944927,12130.02
-35.792908,46.950474,12129.409
-35.78752,46.95601,12128.801
-35.78214,46.96154,12128.19
-35.776756,46.967083,12127.582
-35.771366,46.972633,12126.974
-35.76596,46.978268,12126.368
-35.76052,46.984,12125.747
-35.75509,46.98968,12125.093
-35.74964,46.995346,12124.42
-35.744198,47.00102,12123.744
-35.73875,47.00668,12123.071
-35.733303,47.01234,12122.4
-35.72786,47.018017,12121.725
-35.72241,47.02366,12121.055
-35.716988,47.02944,12120.378
-35.711555,47.035213,12119.695
-35.70613,47.041004,12119.019
-35.700756,47.046776,12118.345
-35.695377,47.052616,12117.68
-35.689972,47.058796,12116.937
-35.684536,47.065586,12116.178
-35.67909,47.072376,12115.419
-35.673653,47.079166,12114.663
-35.66822,47.08596,12113.905
-35.66279,47.092735,12113.149
-35.657356,47.09953,12112.392
-35.651917,47.10632,12111.633
-35.646545,47.11237,12110.879
-35.641167,47.118225,12110.124
-35.635807,47.12407,12109.373
-35.630447,47.12991,12108.616
-35.62508,47.135746,12107.862
-35.619724,47.141617,12107.109
-35.61435,47.147453,12106.3545
-35.608994,47.153313,12105.602
-35.603622,47.159164,12104.849
-35.59827,47.16499,12104.093
-35.592896,47.170837,12103.337
-35.587543,47.17667,12102.583
-35.58217,47.182545,12101.83
-35.576797,47.18837,12101.078
