Latitude,Longitude,Altitude (m)
-48.86633,110.152824,11543.739
-48.849815,110.157166,11550.65
-48.833397,110.16134,11557.179
-48.81686,110.16528,11563.158
-48.800976,110.168686,11568.526
-48.786102,110.17176,11573.173
-48.773346,110.174904,11577.439
-48.764034,110.17818,11581.839
-48.756596,110.1808,11585.857
-48.745087,110.18576,11587.7
-48.73429,110.191055,11589.795
-48.722897,110.195885,11591.734
-48.707424,110.20171,11592.345
-48.692196,110.2077,11593.333
-48.67966,110.21292,11595.411
-48.667767,110.21792,11597.553
-48.65508,110.223404,11599.195
-48.642956,110.22882,11600.942
-48.63088,110.23443,11602.587
-48.618942,110.23978,11604.178
-48.60605,110.2454,11605.311
-48.59349,110.251175,11606.495
-48.58223,110.25638,11608.044
-48.570217,110.2618,11609.058
-48.55801,110.26739,11610.033
-48.5458,110.27299,11611.006
-48.53358,110.27859,11611.9795
-48.521492,110.28425,11612.941
-48.509754,110.290085,11613.87
-48.498028,110.29593,11614.798
-48.486298,110.301765,11615.726
-48.47457,110.307594,11616.654
-48.462837,110.31344,11617.584
-48.451176,110.31926,11618.539
-48.43972,110.32506,11619.562
-48.428257,110.33086,11620.584
-48.41681,110.33665,11621.608
-48.405357,110.342445,11622.629
-48.393883,110.34824,11623.65
-48.382435,110.35404,11624.674
-48.37093,110.35985,11625.692
-48.359413,110.365685,11626.709
-48.34789,110.371506,11627.723
-48.336357,110.37733,11628.736
-48.32483,110.383156,11629.752
-48.313324,110.38898,11630.765
-48.301796,110.3948,11631.782
-48.29027,110.40063,11632.794
-48.27875,110.40645,11633.81
-48.267223,110.41227,11634.824
-48.255707,110.41809,11635.838
-48.244186,110.42391,11636.852
-48.232662,110.42975,11637.867
-48.22113,110.43557,11638.882
-48.209618,110.4414,11639.8955
-48.19809,110.44722,11640.911
-48.18656,110.45304,11641.928
-48.17505,110.45886,11642.94
-48.16353,110.46468,11643.955
-48.152,110.47051,11644.967
-48.140476,110.47633,11645.982
-48.128952,110.482155,11646.999
-48.11749,110.487915,11647.997
-48.10601,110.49365,11649.0
-48.094555,110.4994,11649.999
-48.083073,110.50514,11650.998
-48.071606,110.510895,11652.0
-48.060143,110.51664,11653.001
-48.048676,110.522385,11654.002
-48.037197,110.52814,11655.003
-48.025734,110.53388,11656.002
-48.014256,110.539635,11657.003
-48.00279,110.54538,11658.007
-47.991325,110.551125,11659.003
-47.979904,110.55683,11659.97
-47.968536,110.56249,11660.913
-47.957222,110.5681,11661.824
-47.946033,110.57368,11662.715
-47.93501,110.57917,11663.598
-47.92403,110.58468,11664.487
-47.913063,110.590195,11665.379
-47.90204,110.59577,11666.264
-47.891026,110.60135,11667.146
-47.88007,110.60692,11668.03
-47.86909,110.61248,11668.91
-47.858124,110.61805,11669.793
-47.847157,110.62363,11670.677
-47.83629,110.62923,11671.514
-47.825516,110.634834,11672.325
-47.814735,110.64046,11673.134
-47.80396,110.64608,11673.946
-47.793186,110.651695,11674.754
-47.78241,110.65732,11675.567
-47.77162,110.662926,11676.378
-47.76086,110.66855,11677.188
-47.75014,110.67414,11677.994
-47.739483,110.679695,11678.794
-47.728855,110.68525,11679.594
-47.71821,110.6908,11680.395
-47.70757,110.69637,11681.196
-47.696938,110.70192,11681.995
-47.686287,110.70747,11682.793
-47.675655,110.71303,11683.592
-47.665028,110.7186,11684.392
-47.654385,110.724144,11685.193
-47.643738,110.7297,11685.99
-47.633095,110.73525,11686.79
-47.622467,110.74081,11687.591
-47.611816,110.74636,11688.387
-47.601185,110.75192,11689.188
-47.590546,110.75748,11689.988
-47.579895,110.76303,11690.792
-47.569252,110.7686,11691.6045
-47.558624,110.7741,11692.45
-47.54807,110.77954,11693.312
-47.53752,110.785,11694.166
-47.52682,110.79049,11694.957
-47.516045,110.79596,11695.714
-47.505325,110.801186,11696.381
-47.494804,110.80635,11697.033
-47.48471,110.81176,11697.928
-47.47579,110.81652,11699.239
-47.465168,110.82206,11699.799
-47.454147,110.82764,11700.309
-47.44309,110.83316,11700.908
-47.432335,110.8385,11701.754
-47.421803,110.84387,11702.746
-47.411728,110.84892,11703.909
-47.400917,110.85445,11704.816
-47.39022,110.85988,11705.862
-47.379448,110.86507,11706.788
-47.368053,110.87051,11707.405
-47.357403,110.87562,11708.337
-47.347256,110.88053,11709.384
-47.33733,110.88532,11710.392
-47.326912,110.890366,11711.054
-47.316494,110.895386,11711.715
-47.306076,110.90041,11712.379
-47.29566,110.90545,11713.039
-47.285236,110.91048,11713.702
-47.274826,110.91551,11714.366
-47.2644,110.92054,11715.027
-47.25398,110.92557,11715.691
-47.24356,110.9306,11716.354
-47.233154,110.93563,11717.014
-47.222733,110.94065,11717.674
-47.21231,110.94569,11718.339
-47.2019,110.950714,11719.0
-47.19147,110.95574,11719.664
-47.18105,110.96078,11720.327
-47.170643,110.96579,11720.982
-47.160378,110.97075,11721.647
-47.150124,110.97572,11722.311
-47.139862,110.98069,11722.981
-47.129566,110.98567,11723.649
-47.119293,110.99067,11724.319
-47.109013,110.995636,11724.982
-47.098713,111.00062,11725.649
-47.088432,111.0056,11726.317
-47.078148,111.01057,11726.984
-47.067886,111.01554,11727.647
-47.05765,111.02049,11728.296
-47.047386,111.02546,11728.945
-47.037086,111.030396,11729.582
-47.02677,111.03533,11730.22
-47.016552,111.040184,11730.869
-47.00632,111.04502,11731.517
-46.99608,111.04986,11732.163
-46.985855,111.054695,11732.808
-46.975624,111.05953,11733.454
-46.965385,111.06437,11734.101
-46.955147,111.069214,11734.746
-46.94492,111.07405,11735.392
-46.93469,111.078896,11736.039
-46.924446,111.083725,11736.686
-46.914215,111.08856,11737.332
-46.903984,111.093414,11737.978
-46.89375,111.09825,11738.624
-46.883526,111.10309,11739.268
-46.873287,111.10791,11739.911
-46.86308,111.11274,11740.551
-46.852867,111.11758,11741.191
-46.842655,111.122406,11741.827
-46.832447,111.127235,11742.464
-46.82224,111.13206,11743.104
-46.81202,111.13689,11743.74
-46.80182,111.141716,11744.379
-46.791607,111.14654,11745.015
-46.781387,111.15137,11745.654
-46.77119,111.15618,11746.294
-46.76101,111.16101,11746.939
-46.750793,111.165825,11747.602
-46.74062,111.17064,11748.276
-46.730446,111.17545,11748.948
-46.720284,111.18025,11749.606
-46.710094,111.18504,11750.266
-46.69991,111.18983,11750.92
-46.68976,111.19461,11751.568
-46.67959,111.19938,11752.201
-46.669346,111.20421,11752.799
-46.659084,111.209045,11753.393
-46.648884,111.21386,11754.0205
-46.638836,111.21871,11754.696
-46.62885,111.223656,11755.434
-46.61871,111.2286,11756.183
-46.608063,111.23351,11756.778
-46.596947,111.238434,11757.218
-46.58609,111.243286,11757.794
-46.575912,111.248024,11758.627
-46.566235,111.25261,11759.576
-46.55617,111.257416,11760.306
-46.54599,111.262215,11761.008
-46.53556,111.2669,11761.572
-46.52501,111.2717,11762.063
-46.514797,111.27651,11762.759
-46.504993,111.2811,11763.606
-46.49464,111.28582,11764.179
-46.484097,111.29076,11764.722
-46.47406,111.29542,11765.531
-46.46354,111.3002,11766.126
-46.453022,111.30501,11766.766
-46.442673,111.30972,11767.495
-46.432205,111.314476,11768.205
-46.42175,111.31924,11768.919
-46.41128,111.32398,11769.63
-46.400818,111.32874,11770.344
-46.39037,111.333496,11771.058
-46.37991,111.33826,11771.769
-46.369446,111.34302,11772.481
-46.35898,111.34776,11773.194
-46.34852,111.352516,11773.904
-46.338062,111.35728,11774.618
-46.327587,111.36202,11775.329
-46.31714,111.36678,11776.045
-46.306664,111.37154,11776.754
-46.296204,111.3763,11777.466
-46.285755,111.38104,11778.179
-46.27529,111.3858,11778.895
-46.26482,111.390564,11779.605
-46.254375,111.39532,11780.317
-46.24391,111.40006,11781.028
-46.233444,111.40482,11781.743
-46.222977,111.40958,11782.456
-46.212536,111.41434,11783.167
-46.20215,111.41905,11783.864
-46.191757,111.42377,11784.566
-46.181374,111.42848,11785.268
-46.17098,111.433205,11785.971
-46.16058,111.43792,11786.671
-46.150196,111.442635,11787.37
-46.13981,111.44735,11788.071
-46.129414,111.45208,11788.7705
-46.119022,111.456795,11789.46
-46.108593,111.46151,11790.151
-46.098183,111.466194,11790.832
-46.087788,111.47086,11791.511
-46.07741,111.47556,11792.181
-46.067013,111.480286,11792.833
-46.0566,111.485016,11793.488
-46.046207,111.48975,11794.143
-46.035812,111.49447,11794.797
-46.025406,111.49921,11795.451
-46.015003,111.503944,11796.1045
-46.00461,111.508675,11796.758
-45.9942,111.513405,11797.412
-45.9838,111.51814,11798.067
-45.973408,111.52286,11798.721
-45.963005,111.527596,11799.377
-45.952618,111.53233,11800.034
-45.942207,111.53706,11800.684
-45.931797,111.54179,11801.34
-45.92141,111.546524,11801.996
-45.911007,111.551254,11802.65
-45.900604,111.555984,11803.301
-45.890205,111.56071,11803.958
-45.879803,111.565445,11804.608
-45.869408,111.570175,11805.267
-45.859,111.57491,11805.92
-45.84861,111.57964,11806.574
-45.838203,111.584366,11807.228
-45.8278,111.58911,11807.88
-45.81741,111.59383,11808.532
-45.807026,111.59855,11809.163
-45.79663,111.60327,11809.769
-45.78622,111.60796,11810.3545
-45.775852,111.61265,11810.963
-45.76564,111.61732,11811.575
-45.755634,111.62207,11812.238
-45.74563,111.626854,11812.944
-45.735542,111.631454,11813.555
-45.724747,111.63623,11813.826
-45.71443,111.64075,11814.263
-45.704437,111.64534,11814.737
-45.69527,111.64963,11815.505
-45.685825,111.65389,11815.937
-45.675934,111.65847,11816.07
-45.666595,111.66281,11816.511
-45.657127,111.66721,11816.779
-45.647552,111.67193,11816.984
-45.63858,111.67645,11817.561
-45.628902,111.68113,11817.932
-45.61838,111.685875,11818.076
-45.6079,111.69043,11818.26
-45.597454,111.69513,11818.527
-45.588177,111.69933,11819.37
-45.578335,111.70377,11819.875
-45.568504,111.70822,11820.376
-45.558674,111.712654,11820.881
-45.548824,111.71707,11821.385
-45.53899,111.72151,11821.889
-45.529167,111.72595,11822.392
-45.519318,111.73038,11822.894
-45.509483,111.73482,11823.399
-45.499676,111.73923,11823.893
-45.48987,111.74364,11824.385
-45.480064,111.748055,11824.874
-45.470257,111.75246,11825.366
-45.460457,111.75687,11825.858
-45.45065,111.76128,11826.353
-45.440853,111.76568,11826.842
-45.431046,111.770096,11827.334
-45.421246,111.7745,11827.822
-45.411438,111.778915,11828.3125
-45.401634,111.78332,11828.807
-45.391827,111.78773,11829.296
-45.382027,111.79214,11829.787
-45.372227,111.79654,11830.279
-45.362415,111.80096,11830.769
-45.35262,111.80537,11831.261
-45.34281,111.80978,11831.754
-45.333004,111.81417,11832.245
-45.323204,111.81859,11832.733
-45.313393,111.823,11833.224
-45.303585,111.8274,11833.716
-45.293793,111.83181,11834.208
-45.28399,111.83622,11834.698
-45.274185,111.84062,11835.1875
-45.264378,111.84504,11835.683
-45.25458,111.84945,11836.173
-45.244774,111.85386,11836.661
-45.234966,111.85825,11837.152
-45.225163,111.86267,11837.645
-45.215363,111.86708,11838.135
-45.205555,111.87148,11838.627
-45.195744,111.87589,11839.121
-45.18595,111.88031,11839.609
-45.176144,111.884705,11840.103
-45.16634,111.88912,11840.592
-45.156532,111.89353,11841.08
-45.14672,111.89794,11841.575
-45.13693,111.90234,11842.064
-45.12712,111.90675,11842.557
-45.117313,111.91116,11843.048
-45.10748,111.91559,11843.5205
-45.097664,111.920006,11844.01
-45.08788,111.92436,11844.522
-45.078083,111.92871,11845.03
-45.068295,111.93306,11845.54
-45.058502,111.9374,11846.05
-45.048714,111.94176,11846.56
-45.038914,111.946106,11847.071
-45.029137,111.95047,11847.584
-45.019337,111.95482,11848.091
-45.00954,111.95916,11848.601
-44.99975,111.96352,11849.116
-44.98996,111.96788,11849.632
-44.980198,111.972206,11850.129
-44.970493,111.976524,11850.564
-44.96071,111.980804,11850.888
-44.95087,111.985054,11851.129
-44.941147,111.989204,11851.337
-44.932022,111.99339,11851.531
-44.92366,111.997826,11851.973
-44.91557,112.00218,11852.66
-44.905983,112.006905,11852.937
-44.895145,112.01167,11852.827
-44.88447,112.01636,11852.833
-44.874104,112.021225,11853.355
-44.864807,112.02504,11854.625
-44.85307,112.029465,11854.512
-44.842503,112.033585,11854.709
-44.8334,112.03753,11855.425
-44.82528,112.040924,11856.23
-44.816055,112.04482,11855.852
-44.807457,112.04902,11855.387
-44.800575,112.05268,11855.358
-44.792908,112.05696,11854.437
-44.785286,112.0616,11853.338
-44.778015,112.06619,11852.316
-44.76973,112.071304,11850.778
-44.761497,112.0764,11849.2295
-44.753304,112.08148,11847.681
-44.745113,112.08654,11846.143
-44.73673,112.09162,11844.631
-44.728336,112.09671,11843.114
-44.719948,112.10179,11841.6
-44.711563,112.10687,11840.085
-44.703163,112.11197,11838.571
-44.69477,112.11701,11837.002
-44.686398,112.121994,11835.302
-44.678024,112.127,11833.604
-44.669647,112.13198,11831.9
-44.661266,112.13697,11830.201
-44.652893,112.14195,11828.5
-44.64451,112.146935,11826.797
-44.63613,112.151924,11825.101
-44.627758,112.156906,11823.399
-44.619373,112.1619,11821.697
-44.611,112.166885,11819.997
-44.602634,112.171875,11818.296
-44.59432,112.17667,11816.583
-44.586067,112.18131,11814.858
-44.577835,112.18596,11813.134
-44.569588,112.1906,11811.413
-44.561337,112.19524,11809.692
-44.553097,112.199875,11807.971
-44.544857,112.20453,11806.245
-44.536785,112.209076,11804.455
-44.528717,112.21366,11802.669
-44.520645,112.21822,11800.881
-44.512577,112.22279,11799.09
-44.5045,112.227356,11797.299
-44.496212,112.231995,11795.495
-44.48781,112.23668,11793.676
-44.479225,112.24124,11791.768
-44.470604,112.24579,11789.8545
-44.46194,112.250374,11787.927
-44.452633,112.25527,11785.888
-44.442764,112.26041,11783.747
-44.432884,112.26555,11781.6045
-44.423496,112.27065,11779.394
-44.41414,112.27575,11777.183
-44.40477,112.28084,11774.966
-44.395424,112.285934,11772.75
-44.386074,112.29102,11770.538
-44.37671,112.29611,11768.322
-44.367336,112.30121,11766.108
-44.35799,112.3063,11763.893
-44.348625,112.31139,11761.675
-44.339134,112.31645,11759.525
-44.329624,112.32151,11757.377
-44.32004,112.32664,11755.209
-44.310497,112.33168,11753.003
-44.30098,112.33671,11750.789
-44.291496,112.34171,11748.518
-44.28202,112.34673,11746.201
-44.272533,112.35176,11743.8545
-44.263042,112.35679,11741.478
-44.2529,112.36212,11738.971
-44.242733,112.367455,11736.459
-44.232563,112.3728,11733.95
-44.22247,112.37811,11731.404
-44.21241,112.38339,11728.702
-44.20213,112.38873,11725.686
-44.19139,112.394066,11722.163
-44.18041,112.3993,11718.166
-44.16979,112.40445,11713.647
-44.160664,112.40976,11708.906
-44.15382,112.41525,11704.604
-44.14803,112.42066,11700.256
-44.13987,112.42697,11694.166
-44.13019,112.433334,11687.795
-44.118084,112.43955,11680.792
-44.10502,112.44537,11673.443
-44.093452,112.45076,11666.607
-44.085014,112.455475,11661.081
-44.07779,112.460075,11655.507
-44.06998,112.465355,11648.915
-44.061764,112.471016,11642.11
-44.052757,112.476715,11635.088
-44.04251,112.48298,11627.6045
-44.032722,112.48931,11620.942
-44.02123,112.496315,11614.281
-44.00843,112.503105,11608.129
-43.99334,112.50962,11601.455
-43.97817,112.51625,11595.078
-43.96733,112.52134,11591.806
-43.956493,112.52646,11588.533
-43.945663,112.53156,11585.263
-43.934822,112.53666,11581.99
-43.92334,112.54235,11578.524
-43.911377,112.54822,11574.918
-43.899292,112.55405,11571.2705
-43.887188,112.55988,11567.618
-43.875095,112.56572,11563.957
-43.863026,112.57154,11560.283
-43.850983,112.57731,11556.584
-43.838943,112.58306,11552.857
-43.826878,112.58885,11549.133
-43.814705,112.594666,11545.399
-43.802517,112.60048,11541.661
-43.790337,112.6063,11537.925
-43.778168,112.61212,11534.192
-43.766087,112.61791,11530.421
-43.75414,112.623665,11526.601
-43.74216,112.62944,11522.768
-43.730183,112.63522,11518.937
-43.718163,112.641,11515.054
-43.706142,112.646774,11511.173
-43.69413,112.652565,11507.293
-43.682114,112.658325,11503.412
-43.669804,112.66396,11499.725
-43.657433,112.66957,11496.07
-43.64502,112.67516,11492.417
-43.632607,112.68074,11488.767
-43.620255,112.68624,11485.113
-43.607903,112.69177,11481.462
-43.595547,112.697296,11477.807
-43.583202,112.702805,11474.151
-43.570843,112.70833,11470.5
-43.5585,112.71385,11466.846
-43.54614,112.719376,11463.194
-43.533794,112.724884,11459.538
-43.521442,112.73041,11455.886
-43.50908,112.73592,11452.234
-43.496735,112.74145,11448.58
-43.48439,112.74697,11444.926
-43.472023,112.75248,11441.273
-43.459675,112.758,11437.621
-43.447323,112.76353,11433.967
-43.434948,112.769035,11430.306
-43.42254,112.77458,11426.639
-43.41013,112.78011,11422.971
-43.39772,112.78565,11419.307
-43.38532,112.79117,11415.64
-43.372925,112.79671,11411.973
-43.360516,112.80224,11408.308
-43.348152,112.80775,11404.636
-43.3358,112.81326,11400.96
-43.32344,112.81877,11397.288
-43.311092,112.824295,11393.617
-43.29871,112.829834,11389.946
-43.286327,112.835365,11386.277
-43.273895,112.8409,11382.615
-43.261417,112.84645,11379.049
-43.24902,112.85203,11375.623
-43.236835,112.8576,11372.391
-43.224625,112.86317,11369.325
-43.212265,112.8689,11366.523
-43.19941,112.87457,11363.945
-43.185947,112.88025,11361.287
-43.17325,112.88569,11359.296
-43.162037,112.8906,11358.44
-43.149483,112.89576,11357.049
-43.13733,112.90081,11355.859
-43.126476,112.90548,11355.39
-43.115772,112.91019,11355.071
-43.104668,112.91499,11354.715
-43.093193,112.91983,11354.283
-43.081665,112.92465,11353.82
-43.071022,112.929214,11353.832
-43.06036,112.93377,11353.843
-43.04971,112.93832,11353.852
-43.039062,112.94287,11353.863
-43.028416,112.94742,11353.874
-43.01776,112.95198,11353.888
-43.007114,112.956535,11353.897
-42.996452,112.9611,11353.91
-42.98576,112.965645,11353.924
-42.97506,112.97023,11353.946
-42.964302,112.97482,11354.041
-42.953644,112.97939,11354.2295
-42.943214,112.98398,11354.489
-42.932766,112.98856,11354.643
-42.92192,112.99325,11354.641
-42.9105,112.99784,11354.381
-42.898808,113.00225,11353.665
-42.888584,113.006294,11353.086
-42.880665,113.01008,11353.506
-42.871746,113.014366,11353.628
-42.860207,113.01938,11352.602
-42.84763,113.02482,11351.068
-42.836376,113.02993,11350.615
-42.82393,113.03508,11349.964
-42.81074,113.04015,11348.761
-42.799652,113.044655,11348.332
-42.790478,113.04853,11348.719
-42.780716,113.05277,11348.6045
-42.770546,113.05707,11348.165
-42.76,113.06163,11347.432
-42.749344,113.06642,11346.633
-42.738632,113.07116,11346.187
-42.72578,113.076485,11344.643
-42.71421,113.08132,11343.926
-42.702793,113.0861,11343.272
-42.692005,113.09067,11342.957
-42.681217,113.09523,11342.639
-42.67043,113.09979,11342.321
-42.65965,113.10436,11342.004
-42.648857,113.108925,11341.687
-42.638065,113.1135,11341.37
-42.627274,113.11806,11341.053
-42.616486,113.12262,11340.735
-42.605675,113.127174,11340.42
-42.594875,113.1317,11340.105
-42.58409,113.13623,11339.791
-42.573288,113.14077,11339.477
-42.562492,113.1453,11339.164
-42.5517,113.149826,11338.848
-42.540905,113.154366,11338.534
-42.53011,113.15888,11338.218
-42.519314,113.163414,11337.906
-42.50852,113.16793,11337.59
-42.49774,113.17246,11337.273
-42.48696,113.17698,11336.954
-42.47618,113.18148,11336.635
-42.46542,113.18599,11336.308
-42.45464,113.190506,11335.9795
-42.443867,113.19502,11335.653
-42.433083,113.19953,11335.33
-42.422318,113.20404,11335.005
-42.411533,113.20854,11334.676
-42.400753,113.21307,11334.352
-42.38998,113.21758,11334.026
-42.379185,113.2221,11333.701
-42.36844,113.2266,11333.376
-42.35766,113.231125,11333.05
-42.346874,113.23564,11332.723
-42.33609,113.24014,11332.397
-42.325325,113.24467,11332.073
-42.314526,113.24916,11331.762
-42.30371,113.25365,11331.451
-42.29292,113.25814,11331.144
-42.282177,113.26266,11330.842
-42.271427,113.26718,11330.54
-42.260555,113.27166,11330.173
-42.249527,113.27608,11329.735
-42.2385,113.28049,11329.296
-42.227478,113.28491,11328.857
-42.216454,113.28932,11328.418
-42.205418,113.29375,11327.98
-42.194378,113.29816,11327.541
-42.183353,113.30259,11327.106
-42.172333,113.30701,11326.665
-42.161312,113.311424,11326.227
-42.150276,113.31583,11325.79
-42.139256,113.320244,11325.35
-42.12832,113.324585,11324.899
-42.117443,113.32887,11324.441
-42.106564,113.33317,11323.988
-42.095676,113.33746,11323.531
-42.084797,113.34177,11323.074
-42.07392,113.34606,11322.619
-42.06302,113.35035,11322.162
-42.052143,113.354645,11321.705
-42.041256,113.358925,11321.252
-42.030365,113.363235,11320.802
-42.01942,113.367546,11320.408
-42.00855,113.37185,11320.091
-41.997787,113.37619,11319.869
-41.98703,113.380554,11319.658
