Latitude,Longitude,Altitude (m)
22.903226087494897,120.27346481053802,11.479947021603584
22.903221344507273,120.27346349763445,11.464929966628551
22.903216590511388,120.27346212391336,11.450541731715202
22.90321182585671,120.27346068911616,11.43680189102888
22.903207049145372,120.27345919277742,11.423739805817602
22.903202262474174,120.2734576344317,11.411377497017382
22.903197464969452,120.2734560138204,11.3997431024909
22.90319265698067,120.27345433032295,11.388863536715506
22.903187839032036,120.2734525834222,11.378768160939215
22.903183010948812,120.27345077327328,11.36948755979538
22.903178172905736,120.27344889858331,11.361052317917347
22.903173325427005,120.27344695961088,11.353494243323802
22.90316846886209,120.27344495563194,11.346850037574766
22.90316360216259,120.27344288633624,11.341149061918257
22.90315872707584,120.27344075079286,11.336434134840964
22.90315384325238,120.27343854910525,11.332740734517573
22.903148950692202,120.2734362806011,11.330105562508106
22.90314404974478,120.27343394471156,11.328576330840587
22.903139140584845,120.27343154128144,11.328195858001708
22.903134222862928,120.27342906948333,11.329005739092826
22.90312929815164,120.27342652869663,11.331058579683303
22.903124365053106,120.27342391892134,11.3344033151865
22.9031194249652,120.27342123953686,11.33909010440111
22.90311447753846,120.27341848997435,11.345180116593836
22.90310952312234,120.27341566956147,11.352728404104708
22.90310456171685,120.27341277803967,11.361801029741763
22.90309959367146,120.2734098149952,11.372457939386367
22.9030946191609,120.27340677996266,11.384774982929228
22.903089638010435,120.273403672218,11.398823116719722
22.903084651093742,120.27340049134749,11.414680637419222
22.903079658061348,120.27339723709258,11.432430735230446
22.90307465926272,120.27339390888437,11.452168834209441
22.903069654697862,120.27339050599886,11.473985464870928
22.903064644541505,120.2733870282292,11.497987061738966
22.903059628968386,120.27338347531676,11.524282506108284
22.903054608153237,120.27337984648587,11.552995359897613
22.903049582270796,120.2733761411159,11.584250408411025
22.903044551495793,120.27337235910343,11.618192011117934
22.903039516002966,120.27336849998304,11.654971867799757
22.903034475617577,120.27336456339269,11.694756358861921
22.903029430164892,120.2733605487118,11.737727768719195
22.903024380518588,120.27335645552667,11.784089179337023
22.903019326154457,120.27335228352698,11.834057129919527
22.903014267247233,120.27334803219557,11.887877520918845
22.903009204146386,120.2733437016359,11.945818273723125
22.903004136851916,120.27333929060677,12.008174224197864
22.902999065014356,120.2733347995219,12.075283026695251
22.902993989507376,120.27333022776074,12.147508026659487
22.902988909107833,120.27332557470268,12.225266398489474
22.902983824864137,120.27332084034771,12.309016911685466
22.902978736426817,120.27331602428212,12.399275834858416
22.902973643795878,120.27331112588531,12.496624276041983
22.90296854679658,120.27330614526073,12.601704512536525
22.90296344577839,120.27330108178778,12.715243235230444
22.902958340566578,120.27329593546646,12.838039314746856
22.902953230811676,120.27329070557276,12.970982152223586
22.902948117037887,120.27328539210667,13.115034551918505
22.90294299889574,120.27327999460276,13.271232721209525
22.902937876210498,120.27327451280243,13.440660579502582
22.902932749331633,120.27326894644713,13.624395929276941
22.90292761790968,120.27326329527827,13.823435829579829
22.90292248211937,120.2732575587787,14.038569363951682
22.90291734161123,120.27325173653468,14.270188015699386
22.902912196734736,120.27324582849451,14.518000619113444
22.902907047315146,120.27323983388244,14.780687141418456
22.902901893177734,120.2732337527502,15.0554594874382
22.902896734671966,120.27322758437377,15.3376284211874
22.902891571797838,120.27322132844286,15.620311176776884
22.902886404205884,120.27321498402658,15.894481617212294
22.90288123242031,120.2732085513835,16.149632085859775
22.90287605644111,120.27320202927247,16.37517785280943
22.902870876268288,120.27319541702117,16.56250628530979
22.902865692513412,120.27318871447447,16.707139793038365
22.902860504914383,120.27318192028774,16.810145168006418
22.902855313908034,120.27317503373698,16.877997788786885
22.90285012028067,120.27316805399474,16.92078324407339
22.90284492420703,120.27316098013011,16.949454502761363
22.90283972568711,120.27315381074682,16.973495247960088
22.902834525944044,120.27314654475882,16.999744203686713
22.902829325502044,120.27313918071805,17.032354763150213
22.902824124841626,120.27313171727994,17.073387107253073
22.90281892514225,120.27312415273785,17.1233990997076
22.902813727015477,120.27311648528175,17.181928300857543
22.902808531684453,120.27310871330846,17.247832068800925
22.902803340153902,120.2731008346459,17.319540800154208
22.902798153559598,120.27309284712204,17.39527691602707
22.902792973474142,120.27308474866827,17.473286081850528
22.90278780090226,120.27307653675048,17.55196933299303
22.90278263746025,120.27306820904151,17.630010306835175
22.90277748450229,120.27305976300727,17.706405827403067
22.902772343819418,120.27305119590686,17.78048180937767
22.90276721672214,120.27304250520619,17.85182474851608
22.902762104739374,120.27303368834535,17.92024134993553
22.90275700913795,120.27302474258342,17.985690018534658
22.902751931272054,120.27301566585176,18.048224583268166
22.902746871796946,120.27300645577147,18.107955148816107
22.90274183145524,120.27299711050664,18.16501261740923
22.902736810465356,120.27298762879023,18.219537678360936
22.902725534293605,120.27297858681145,18.399695849418638
22.902711538207864,120.27296893614023,18.51800944507122
22.902690397324285,120.2729572958153,18.626522500813007
22.90264309889192,120.27294418488013,19.039717227220535
22.902583555080373,120.27292857476344,19.322972527146337
22.902516928632714,120.27290900726675,19.559328126907346
22.902446663256054,120.27288442545276,19.78235127329826
22.902381886349033,120.2728528453565,19.9566518753767
22.902331077657635,120.27281286176206,20.09885696321726
22.90229951990187,120.27276566324875,20.23981175124645
22.902289058428757,120.27271604255844,20.356879940629003
22.90229446905427,120.27267279046144,20.47723169624805
22.902309901281157,120.27264720941831,20.551916924118995
22.902326388226072,120.27264993300668,20.665743142366406
22.90234131804819,120.27268504187066,20.7731343537569
22.90236653830039,120.2727459314775,20.492851880192756
22.902378134476155,120.27281706298105,20.402386204898356
22.902381851118232,120.27288211459356,20.288978384435175
22.902394792551473,120.27293229813044,20.05365654528141
22.90240643365579,120.27296664519152,19.876330511271952
22.902408054578455,120.2729905469197,19.712427461147307
22.902400772483148,120.27300946812673,19.628625565767287
22.902396764144015,120.27302495559991,19.535094086825847
22.902401393576188,120.27303766230021,19.447911977767944
22.902412541907964,120.27304909697811,19.364303377270698
22.90242772160012,120.27305960837768,19.275567568838596
22.902445442780706,120.27306829540653,19.18725749850273
22.90246623515674,120.27307408170822,19.065594273805615
22.90248982751875,120.27307866924264,18.957752856612203
22.902517995254517,120.27308344383233,18.839671704173085
22.902551219582275,120.27308895873063,18.700078544020652
22.902586230175018,120.2730952334343,18.55460824072361
22.90262091785879,120.27310229224967,18.40635473579168
22.90265764788065,120.27310796322561,18.15449762046337
22.90269324064437,120.2731112342881,17.950983799993992
22.902729277932128,120.27310991414434,17.758191728591918
22.902764031534414,120.2731047295535,17.73633227944374
22.902802883791615,120.27309638239946,17.68111233562231
22.902843177999884,120.27308761453914,17.643648606538772
22.902883601467842,120.27307969145289,17.513177007436752
22.902918789110107,120.27307512000202,17.42886251360178
22.902950057287466,120.2730753044198,17.353768675029276
22.90297909602999,120.27308077572187,17.287500338256358
22.903004365579104,120.27308956033804,17.22687303125858
22.903023044325458,120.27309925142498,17.18028774112463
22.90303343315279,120.27310807912023,17.1991401091218
22.90304083524687,120.27311495791366,17.23344505727291
22.903049004599225,120.27311907002671,17.28766794204712
22.90305875547166,120.27311951695279,17.32624250501394
22.90306247067218,120.27311583888866,17.387127946317193
22.90305481468917,120.27310938783484,17.475193339586255
22.9030381796351,120.27310286794757,17.50543664842844
22.90301497701793,120.27310019957852,17.569616666436193
22.90299357783338,120.27310187836984,17.644268862903118
22.902973115574113,120.27310614619851,17.835268674790857
22.90296039037456,120.27311018001417,18.002137210965156
22.902954148690913,120.27311286963833,18.13796356767416
22.90295247403746,120.27311368571026,18.243821877241132
22.902954425120562,120.27311320010091,18.323787236213683
22.90295907619795,120.27311204808454,18.382777653634548
22.902965439147195,120.27311080106664,18.42521566748619
22.902972689571907,120.27310982193545,18.45480324178934
22.902980176412118,120.27310924096257,18.47412783652544
22.902987430156784,120.2731090615612,18.4844666659832
22.902993986187422,120.27310919576315,18.488286074995994
22.902999519847718,120.27310958264745,18.48866287767887
22.903003759076377,120.2731101900987,18.48620999008417
22.90300641154293,120.27311100172311,18.482049256563187
22.90300729045642,120.27311207430434,18.477607144415376
22.903006252884193,120.27311342656347,18.473465985059736
22.903003302495673,120.27311502897088,18.469905933737753
22.902998633420655,120.27311672824158,18.46709214746952
22.90299279642163,120.27311831559975,18.46553600132465
22.90298663406735,120.27311964686234,18.4656852543354
22.902980874825086,120.27312078476037,18.467862880229948
22.902975736763228,120.27312194468922,18.472304992377758
22.902970997095554,120.27312331841031,18.479392063617706
22.902966289578995,120.27312502155968,18.489429940283298
22.902961304060174,120.27312707208264,18.502270592749117
22.902955821946495,120.27312944334565,18.517501740157602
22.902949699606367,120.27313208704636,18.534456637501716
22.90294285002212,120.2731349371957,18.552534602582455
22.902935202601096,120.27313792873545,18.572344881296157
22.902926678363393,120.27314104087594,18.594846607744692
22.902917257913504,120.27314420586976,18.620512008666992
22.902906998739013,120.27314733140457,18.64828285574913
22.902896009699386,120.27315025540376,18.676866030693052
22.902884422719012,120.27315284966438,18.704695600271222
22.902872361072934,120.27315499570602,18.730633816123007
22.902859936416363,120.2731566441403,18.753714203834534
22.902847204664276,120.27315774056243,18.774789462983605
22.90283418084382,120.27315823475656,18.797112575173376
22.90282087923952,120.27315804247802,18.825367882847786
22.9028073431418,120.27315704778044,18.863515484333035
22.902793632659257,120.27315513704472,18.912625841796398
22.902779788636032,120.27315220016835,18.9706106364727
22.90276579862231,120.27314824071972,19.03343881368637
22.902751611683033,120.27314334677045,19.097809679806232
22.90273716224917,120.27313769916996,19.16215852499008
22.902722415286494,120.27313142870698,19.226170939207076
22.902707341527005,120.27312461404087,19.291641628742216
22.902691862034487,120.27311746151686,19.36200341284275
22.902675951472474,120.27311003065955,19.439770348370075
22.90265960647733,120.27310239557741,19.52528008967638
22.902642921187148,120.27309437769651,19.616917768120764
22.90262590910016,120.27308604279906,19.715483477711675
22.902608590485535,120.27307746716558,19.82194246947765
22.9025909929513,120.27306873752308,19.937443502247334
22.90257315314797,120.27305995130372,20.0633959159255
22.902555117816963,120.27305121742053,20.20150021612644
22.90253694361588,120.27304265311275,20.353774988651274
22.902518699215296,120.27303438410097,20.522533655166622
22.902500465429817,120.27302653985514,20.710117775201795
22.90248233604808,120.27301924953495,20.91826455593109
22.9024644171338,120.2730126362752,21.146673044562338
22.90244522445021,120.27300651539953,21.43015589416027
22.90242656638803,120.27300153751588,21.716410934925076
22.902408144544772,120.27299788143087,21.98008472919464
22.90239088927133,120.27299566288397,22.149320515990254
22.902374377011782,120.27299448190686,22.208696299791335
22.90236024057072,120.27299414249748,22.116687935590743
22.902351697374346,120.27299509331438,21.808091431856152
22.902344402851064,120.27299646256206,21.42694817781448
22.90233629659963,120.27299776282116,21.074238845705985
22.902324298971827,120.27299819216395,20.9158300191164
22.902315479258437,120.27299808906893,20.83788569271564
22.90231316284961,120.27299720468072,20.81759462356567
22.90231852345743,120.27299508423829,20.78854900896549
22.90232699584273,120.27299158304146,20.764524167776106
22.90233453204538,120.27298702715697,20.737289163470265
22.902342383621587,120.27298210910824,20.607402342557904
22.902347759846283,120.27297559899523,20.52017007470131
22.902354383520933,120.27296608989542,20.446407279372213
22.90236321841437,120.27295331754219,20.448959261178967
22.90237483964266,120.27293813407908,20.442422713339326
22.902384924039175,120.27292182885321,20.45095827281475
22.902388889677617,120.27290533021106,20.55436858832836
22.902393454196005,120.27289009968678,20.624316868185996
22.902401916031724,120.27287668099216,20.680228024721142
22.90241523631075,120.27286472284909,20.685371136665342
22.902430150472302,120.27285302672306,20.6948107779026
22.902445759792396,120.27284077227554,20.7048596650362
22.902462488678783,120.27282789284519,20.727120384573933
22.902479053009152,120.27281599489908,20.757920333743094
22.90249332866976,120.27280743351322,20.798044925928114
22.902506960609237,120.27280330707497,20.730648627877233
22.902518263384287,120.27280361392938,20.708950665593147
22.902531716963736,120.27280769240144,20.67041158080101
22.902549056721206,120.27281529547164,20.652435156702992
22.90256929357324,120.27282607152571,20.610509741306302
22.902588449256843,120.27283974998771,20.567187219858166
22.902602091724063,120.2728565294972,20.60207816958427
22.902613945348968,120.27287525969273,20.58991037905216
22.902624182769035,120.27289472352554,20.567319345474242
22.90263295569732,120.27291344790305,20.452675905823707
22.902635128824027,120.27293214445757,20.37778514921665
22.902631322150107,120.27295140129876,20.3091850399971
22.902623013621888,120.27297341851101,20.366247402131556
22.902619937861513,120.27299835868814,20.35560517311096
22.902623518778725,120.27302653458015,20.320567417144773
22.902633471163483,120.2730549274449,20.120877899229527
22.902641717398925,120.27308160865307,19.9648485571146
22.902648983025525,120.27310381165357,19.800865986943244
22.902656843229234,120.27312170700439,19.7191781014204
22.902667953447093,120.273135205341,19.611018604040144
22.902679550299954,120.27314613341305,19.5136493653059
22.902689372857132,120.2731557641479,19.41756468117237
22.902698211179725,120.27316503639034,19.337034118175506
22.9027079669884,120.27317382721237,19.2656446903944
22.90271944703139,120.273181748954,19.18516795635223
22.902730756271605,120.27318888751482,19.117343473434445
22.902740740545372,120.27319509571224,19.059752608835694
22.902749463849116,120.27320051028231,19.026499772071837
22.902758887968425,120.27320556186066,18.997777131199836
22.902770325288877,120.27321105100461,18.971279828250406
22.902783253354944,120.27321714920298,18.94725131690502
22.902794737897338,120.2732218153451,18.92921250015497
22.902801640163975,120.27322304503828,18.93135831803083
22.90280441258562,120.27321929472747,18.93313345015049
22.90280634785527,120.27321180020829,18.972245079278945
22.90281188094768,120.27320143050943,19.032964140176773
22.90282037259744,120.27319007733529,19.134425602853298
22.902826546178396,120.27318035346066,19.23618801832199
22.902824280966716,120.27317560105695,19.34409549832344
22.902813285243504,120.27317708860404,19.451041397452354
22.90279992335587,120.27318308311267,19.561170545220374
22.902791154140694,120.27319044642941,19.662826526165006
22.902789251852138,120.27319691656629,19.723974995315075
22.90278899783216,120.2732023054337,19.76779665797949
22.902785820594847,120.27320713985833,19.79297637492418
22.902778261895158,120.27321171611874,19.830801002681255
22.902769840401216,120.27321517433992,19.8517637103796
22.90276256464003,120.27321690991496,19.862750934064387
22.90275633955614,120.27321758345876,19.867613890767096
22.902750970582918,120.2732197411364,19.858871579170227
22.90274655299423,120.27322532243751,19.83104690313339
22.902745051458773,120.27323350823892,19.73266103118658
22.90274581360607,120.27324157111238,19.619773149490356
22.9027503539456,120.2732469381041,19.483978600800036
22.902758280723077,120.27324929586935,19.365381179749964
22.902767757699507,120.27324871680995,19.233283701539037
22.902774772844495,120.27324623720277,19.109543168544768
22.90277754330038,120.27324285283144,19.010041569173335
22.90277852220557,120.27323973567454,18.935866492986676
22.902780400817626,120.27323744529471,18.88861201107502
22.902784383448978,120.27323612815046,18.855693158507346
22.902789605252245,120.27323564957443,18.843806746602056
22.902795568365747,120.27323561058088,18.845509698987005
22.9028023881578,120.2732355827579,18.84661074578762
22.902809592146873,120.27323588167398,18.85175385773182
22.902817112230284,120.27323709699024,18.85701074451208
22.90282464913187,120.27323975987744,18.869429329037665
22.902832189484457,120.27324358946824,18.882558700442313
22.90283922874278,120.27324806783106,18.901592129468916
22.902845678010767,120.27325265024564,18.92412933409214
22.90285128208898,120.27325734209039,18.960474888980386
22.90285638363137,120.27326232431815,19.00929652750492
22.90286237946387,120.27326786497082,19.03837150335312
22.902867551773646,120.27327372931131,19.069339056313037
22.902871732641053,120.27327979875584,19.096731877326963
22.902873109197806,120.27328602919097,19.162589156627654
22.902874359771133,120.27329291693118,19.2241217687726
22.902875459111932,120.27330058599047,19.280961474776266
22.90287611585077,120.27330878466906,19.332766950130463
22.902876367992352,120.27331740638114,19.379448887705802
22.902876265772793,120.27332634650607,19.42120302915573
22.902875822996094,120.27333552529844,19.458523622155187
22.902875042632747,120.27334486254735,19.492284163832664
22.90287393044898,120.27335423258394,19.52344011813402
22.902872513179137,120.27336352618491,19.55262886881828
22.902870847349764,120.27337262264605,19.580057168006896
22.902869005737692,120.27338142257004,19.605771504342556
22.90286704111268,120.27338981911247,19.62995783239603
22.902864969637648,120.2733977309247,19.652882850170133
22.90286278047907,120.27340509656864,19.674788787961006
22.902860466472838,120.27341186722478,19.695789420604704
22.90285802508531,120.27341799665938,19.71604868173599
22.902855465053197,120.27342341945221,19.735701143741608
22.90285279039539,120.27342808388771,19.75475904047489
22.902850001723454,120.27343193587136,19.772987481951713
22.902847093183798,120.2734349426672,19.790024346113203
22.90284406276697,120.27343705581772,19.80540474653244
22.902840919646525,120.27343822976151,19.818452151119708
22.902837680596953,120.27343843993366,19.828442315757272
22.902834360558035,120.273437726362,19.83496540635824
22.90283096887806,120.27343621233653,19.83862455189228
22.902827525214633,120.2734340713113,19.84053547978401
22.902824067747197,120.2734315082869,19.842075721919535
22.902820625700063,120.2734287445026,19.844208082556722
22.90281718129401,120.27342600228368,19.847803612053394
22.902813665377955,120.27342344593059,19.853344324231145
22.902809994385212,120.27342110512805,19.861000269651413
22.902806105455127,120.27341883807195,19.870672354102133
22.902801973950158,120.27341633633051,19.88220153748989
22.902797605461807,120.27341316254504,19.89555111825466
22.90279302405972,120.27340884620715,19.91072843670845
22.9027882603224,120.27340295900837,19.927727375924587
