Latitude,Longitude,Altitude (m),Speed (m/s),wind_speed,wind_direction
22.903353,120.273445,-12.675465,-26.236156,25.997952,289.98767
22.903364,120.27345,-13.365045,-27.469841,25.997711,289.98563
22.903372,120.27346,-14.056205,-28.712402,25.99746,289.98352
22.903381,120.27348,-14.748802,-29.963541,25.997198,289.98132
22.90339,120.27349,-15.442663,-31.22303,25.996923,289.97903
22.9034,120.2735,-16.137743,-32.49072,25.996637,289.97668
22.90341,120.27351,-16.833937,-33.766296,25.99634,289.9742
22.90342,120.27352,-17.530989,-35.049614,25.99603,289.9717
22.903429,120.27353,-18.228905,-36.34039,25.99571,289.96906
22.903439,120.27354,-18.927515,-37.638477,25.99538,289.96637
22.903446,120.27355,-19.626694,-38.94353,25.995035,289.96356
22.903458,120.27356,-20.32639,-40.255386,25.99468,289.9607
22.903465,120.27357,-21.0264,-41.573814,25.994314,289.9577
22.903475,120.27358,-21.72663,-42.898594,25.993937,289.95465
22.903484,120.27359,-22.426975,-44.229454,25.99355,289.9515
22.903492,120.2736,-23.127346,-45.566208,25.993149,289.9483
22.903502,120.27361,-23.827576,-46.908607,25.992737,289.94498
22.90351,120.27362,-24.527607,-48.256413,25.992315,289.9416
22.90352,120.27363,-25.227282,-49.609386,25.991882,289.93808
22.903528,120.27364,-25.926493,-50.967335,25.991438,289.9345
22.903538,120.27365,-26.62524,-52.32994,25.990984,289.93085
22.903545,120.27367,-27.323246,-53.69703,25.990519,289.9271
22.903555,120.273674,-28.020523,-55.068356,25.990044,289.92328
22.903563,120.27368,-28.716917,-56.44369,25.989557,289.91934
22.903572,120.2737,-29.41233,-57.822792,25.989061,289.91534
22.90358,120.273705,-30.106688,-59.205406,25.988554,289.91122
22.90359,120.27372,-30.799866,-60.59133,25.988039,289.90704
22.903597,120.27373,-31.491716,-61.980278,25.987513,289.9028
22.903606,120.27374,-32.182243,-63.37204,25.986979,289.89844
22.903614,120.27375,-32.871315,-64.76639,25.986433,289.894
22.903622,120.273766,-33.558754,-66.16311,25.985878,289.8895
22.90363,120.27377,-34.24456,-67.5619,25.985315,289.88492
22.903639,120.27378,-34.92859,-68.96255,25.984745,289.88022
22.903646,120.273796,-35.61075,-70.364845,25.984163,289.8755
22.903654,120.2738,-36.29098,-71.768524,25.983576,289.87067
22.903662,120.27382,-36.969162,-73.17335,25.982977,289.86572
22.90367,120.27383,-37.6452,-74.57909,25.982372,289.86075
22.903677,120.27384,-38.31902,-75.98549,25.981758,289.85568
22.903685,120.27385,-38.99053,-77.3924,25.981138,289.85056
22.903692,120.273865,-39.65963,-78.79946,25.98051,289.84534
22.9037,120.27387,-40.32624,-80.20649,25.979874,289.84006
22.903708,120.273895,-40.990295,-81.61326,25.97923,289.83472
22.903715,120.2739,-41.651672,-83.019516,25.978582,289.82925
22.90372,120.27392,-42.31032,-84.425095,25.977924,289.82376
22.90373,120.273926,-42.966137,-85.829636,25.97726,289.8182
22.903736,120.27394,-43.619064,-87.23301,25.976591,289.8126
22.903744,120.27395,-44.26897,-88.634926,25.975916,289.8069
22.903751,120.273964,-44.91581,-90.035194,25.975235,289.80115
22.903757,120.27397,-45.559525,-91.433556,25.974546,289.79532
22.903765,120.27399,-46.20002,-92.829796,25.973854,289.78946
22.90377,120.273994,-46.83718,-94.22364,25.973156,289.78354
22.903778,120.274,-47.47099,-95.61491,25.972452,289.77756
22.903784,120.27402,-48.10132,-97.00337,25.971743,289.7715
22.903791,120.274025,-48.728123,-98.38871,25.971031,289.7654
22.9038,120.27404,-49.351303,-99.77079,25.970312,289.75928
22.903803,120.27405,-49.970833,-101.14936,25.969591,289.7531
22.90381,120.27406,-50.586597,-102.5242,25.968864,289.74686
22.903816,120.27407,-51.19854,-103.89508,25.968136,289.7406
22.903822,120.274086,-51.80657,-105.2617,25.967402,289.73428
22.90383,120.27409,-52.41064,-106.623955,25.966663,289.7279
22.903833,120.27411,-53.010674,-107.981514,25.965923,289.72153
22.903841,120.27412,-53.606594,-109.33419,25.96518,289.7151
22.903847,120.27413,-54.198338,-110.68175,25.964434,289.70862
22.903852,120.27414,-54.785862,-112.02398,25.963684,289.70215
22.903858,120.274155,-55.369045,-113.36065,25.962933,289.69562
22.903864,120.27416,-55.947865,-114.69152,25.96218,289.68906
22.903868,120.27417,-56.52224,-116.0164,25.961424,289.6825
22.903873,120.274185,-57.09212,-117.33499,25.960667,289.6759
22.90388,120.27419,-57.657413,-118.64714,25.959908,289.6693
22.903883,120.27421,-58.218075,-119.95258,25.959146,289.66266
22.903889,120.274216,-58.774014,-121.25108,25.958385,289.65604
22.903894,120.27422,-59.325203,-122.54248,25.957624,289.64938
22.903898,120.27424,-59.871574,-123.82647,25.95686,289.64273
22.903904,120.27425,-60.413048,-125.102905,25.956097,289.63605
22.90391,120.27426,-60.94955,-126.37146,25.955334,289.6294
22.903913,120.27427,-61.48107,-127.631966,25.954569,289.6227
22.903917,120.27428,-62.0075,-128.8842,25.953806,289.61606
22.903921,120.2743,-62.528763,-130.12793,25.953043,289.6094
22.903927,120.27431,-63.044865,-131.36295,25.95228,289.60272
22.903929,120.274315,-63.555683,-132.58897,25.951519,289.59607
22.903934,120.27433,-64.061195,-133.80585,25.95076,289.58945
22.903938,120.27434,-64.56131,-135.01329,25.950003,289.58282
22.903942,120.274345,-65.05599,-136.21114,25.949245,289.57623
22.903946,120.27436,-65.54516,-137.39906,25.94849,289.56964
22.90395,120.27437,-66.02877,-138.57693,25.947739,289.56305
22.903954,120.274376,-66.50676,-139.74445,25.94699,289.55652
22.903957,120.27438,-66.97904,-140.90144,25.946241,289.55002
22.903961,120.2744,-67.44557,-142.04764,25.9455,289.54352
22.903963,120.27441,-67.90632,-143.18288,25.94476,289.53708
22.903967,120.274414,-68.36117,-144.30688,25.944021,289.53064
22.903969,120.27442,-68.81008,-145.41939,25.943287,289.5243
22.903973,120.27443,-69.253006,-146.52025,25.94256,289.51794
22.903976,120.274445,-69.68987,-147.60922,25.941835,289.51163
22.903978,120.27445,-70.120605,-148.68608,25.941114,289.50537
22.90398,120.27446,-70.54516,-149.75063,25.9404,289.49918
22.903982,120.27447,-70.963455,-150.80244,25.93969,289.493
22.903986,120.274475,-71.37545,-151.8416,25.938986,289.4869
22.903988,120.27448,-71.781044,-152.8677,25.938288,289.48087
22.90399,120.27449,-72.1802,-153.88045,25.937597,289.47488
22.903994,120.274506,-72.57283,-154.8798,25.936913,289.46893
22.903994,120.27451,-72.95889,-155.8654,25.936234,289.46307
22.903996,120.27452,-73.33832,-156.83714,25.935562,289.45728
22.903997,120.27453,-73.71103,-157.79472,25.934898,289.45154
22.904,120.274536,-74.07695,-158.73785,25.934242,289.44586
22.904001,120.27454,-74.43601,-159.66641,25.933596,289.44025
22.904003,120.27455,-74.78817,-160.58012,25.932955,289.43475
22.904003,120.27456,-75.13332,-161.47884,25.932325,289.4293
22.904005,120.27457,-75.47142,-162.36226,25.931704,289.42392
22.904007,120.274574,-75.80237,-163.2302,25.931091,289.41864
22.904007,120.27458,-76.12612,-164.08241,25.93049,289.41342
22.904009,120.27458,-76.44259,-164.91861,25.929897,289.4083
22.904009,120.27459,-76.75171,-165.7388,25.929316,289.40326
22.90401,120.2746,-77.0534,-166.54256,25.928745,289.39835
22.90401,120.274605,-77.34759,-167.32967,25.928186,289.39346
22.90401,120.27461,-77.63419,-168.09999,25.927639,289.38873
22.90401,120.27462,-77.91317,-168.85323,25.927103,289.38406
22.90401,120.27463,-78.184395,-169.58923,25.92658,289.3795
22.90401,120.27463,-78.447815,-170.30774,25.92607,289.37503
22.90401,120.274635,-78.70335,-171.00853,25.925571,289.37067
22.90401,120.27464,-78.9509,-171.6914,25.925087,289.36642
22.90401,120.27465,-79.19044,-172.3561,25.924618,289.36227
22.90401,120.27465,-79.42183,-173.00241,25.92416,289.35825
22.90401,120.27466,-79.64503,-173.63017,25.92372,289.3543
22.90401,120.274666,-79.85993,-174.2391,25.92329,289.3505
22.90401,120.274666,-80.06646,-174.82893,25.922878,289.34677
22.904009,120.27467,-80.264565,-175.39958,25.922482,289.3432
22.904009,120.27468,-80.454124,-175.9507,25.922102,289.33972
22.904007,120.27468,-80.63505,-176.4821,25.92174,289.33636
22.904007,120.27469,-80.8073,-176.99358,25.921392,289.33316
22.904005,120.27469,-80.97075,-177.48486,25.92106,289.33008
22.904003,120.274704,-81.12534,-177.95578,25.92075,289.3271
22.904003,120.274704,-81.27095,-178.40607,25.920454,289.32425
22.904001,120.27471,-81.407555,-178.83553,25.920177,289.32153
22.904,120.27471,-81.53502,-179.2439,25.919918,289.31894
22.903997,120.27472,-81.65327,-179.63092,25.91968,289.3165
22.903996,120.27472,-81.76219,-179.99646,25.919458,289.31418
22.903994,120.27472,-81.86175,-180.34018,25.919258,289.312
22.903994,120.27473,-81.95183,-180.6619,25.919077,289.30997
22.90399,120.27473,-82.03233,-180.96141,25.918917,289.30804
22.903988,120.27473,-82.10318,-181.23839,25.918776,289.3063
22.903986,120.274734,-82.16428,-181.49268,25.918653,289.3047
22.903982,120.274734,-82.21555,-181.7239,25.918554,289.30322
22.90398,120.274734,-82.25689,-181.932,25.918478,289.30188
22.903978,120.274734,-82.28822,-182.11661,25.91842,289.30072
22.903976,120.27474,-82.30943,-182.27757,25.918386,289.29968
22.903973,120.27474,-82.32045,-182.41452,25.918375,289.29883
22.903969,120.27474,-82.32118,-182.5273,25.918385,289.29813
22.903967,120.27474,-82.31151,-182.61555,25.918417,289.29755
22.903963,120.27474,-82.291374,-182.67917,25.918472,289.29715
22.903961,120.27474,-82.26066,-182.71776,25.91855,289.2969
22.903957,120.27474,-82.21928,-182.73112,25.918652,289.29678
22.903954,120.27474,-82.16714,-182.71893,25.918777,289.29688
22.90395,120.27474,-82.104164,-182.68105,25.918926,289.2971
22.903946,120.27474,-82.03024,-182.61708,25.919098,289.2975
22.903942,120.27474,-81.94525,-182.52682,25.919294,289.29807
22.903938,120.27474,-81.84912,-182.41002,25.919516,289.29877
22.903934,120.27474,-81.74176,-182.26625,25.91976,289.29968
22.903929,120.27474,-81.623055,-182.09541,25.920029,289.30072
22.903927,120.274734,-81.49293,-181.89713,25.920322,289.30197
22.903921,120.274734,-81.35126,-181.67113,25.920639,289.30338
22.903915,120.274734,-81.197975,-181.41711,25.92098,289.30493
22.903913,120.274734,-81.03296,-181.13484,25.921349,289.3067
22.903908,120.27473,-80.85611,-180.82397,25.92174,289.30862
22.903902,120.27473,-80.667336,-180.48427,25.922155,289.31073
22.903896,120.27473,-80.466515,-180.11528,25.922596,289.313
22.903893,120.27472,-80.25357,-179.71696,25.923061,289.31546
22.903887,120.27472,-80.02839,-179.28877,25.923552,289.31808
22.903881,120.27471,-79.79087,-178.8305,25.924068,289.3209
22.903875,120.27471,-79.5409,-178.34184,25.924606,289.32388
22.90387,120.274704,-79.278366,-177.82246,25.92517,289.32706
22.903864,120.274704,-79.003204,-177.2721,25.925758,289.3304
22.903858,120.27469,-78.71526,-176.69038,25.926369,289.33395
22.903852,120.27468,-78.41444,-176.07704,25.927004,289.33768
22.903847,120.27468,-78.10064,-175.4317,25.927664,289.34158
22.90384,120.27467,-77.77375,-174.75404,25.928347,289.34567
22.903833,120.274666,-77.43363,-174.04385,25.929052,289.34995
22.903828,120.27466,-77.0802,-173.30063,25.929783,289.3544
22.90382,120.27465,-76.71333,-172.52417,25.930534,289.35907
22.903812,120.27465,-76.33291,-171.71416,25.931309,289.3639
22.903805,120.27464,-75.93883,-170.8702,25.932104,289.3689
22.9038,120.274635,-75.530945,-169.99203,25.932924,289.37408
22.903791,120.27463,-75.10914,-169.07921,25.933764,289.37946
22.903784,120.27462,-74.67329,-168.1315,25.934626,289.38504
22.903776,120.27461,-74.223274,-167.14857,25.935507,289.3908
22.903769,120.2746,-73.75896,-166.13005,25.936409,289.39673
22.90376,120.27459,-73.28023,-165.07567,25.93733,289.40283
22.903751,120.27458,-72.786934,-163.985,25.938272,289.40915
22.903744,120.274574,-72.278946,-162.85776,25.939234,289.41562
22.903736,120.27457,-71.756134,-161.69363,25.940212,289.42227
22.903727,120.27455,-71.21834,-160.49223,25.94121,289.4291
22.903719,120.27454,-70.66543,-159.25331,25.942225,289.43613
22.903708,120.27453,-70.097244,-157.97644,25.943256,289.4433
22.9037,120.27452,-69.513664,-156.66136,25.944305,289.45068
22.90369,120.274506,-68.914505,-155.3077,25.945368,289.4582
22.90368,120.2745,-68.29963,-153.91516,25.946447,289.46588
22.903671,120.27448,-67.66887,-152.48338,25.94754,289.47375
22.903662,120.274475,-67.02207,-151.01208,25.948647,289.48178
22.903652,120.27446,-66.35906,-149.50081,25.949766,289.48996
22.90364,120.274445,-65.67968,-147.9494,25.9509,289.4983
22.903631,120.27443,-64.98374,-146.35744,25.952044,289.50677
22.903622,120.27442,-64.271065,-144.72464,25.953197,289.51544
22.903608,120.27441,-63.541504,-143.05057,25.954363,289.52423
22.903599,120.27439,-62.79484,-141.33508,25.95554,289.53314
22.903587,120.274376,-62.03091,-139.57771,25.956722,289.5422
22.903576,120.27436,-61.249523,-137.7782,25.957914,289.5514
22.903564,120.274345,-60.450466,-135.93619,25.959112,289.5607
22.903553,120.27432,-59.633575,-134.05138,25.960316,289.57016
22.903542,120.27431,-58.798645,-132.12352,25.961527,289.57968
22.903528,120.274284,-57.945427,-130.15215,25.96274,289.58936
22.903517,120.27427,-57.073803,-128.13702,25.963957,289.59912
22.903505,120.27425,-56.183495,-126.07787,25.965178,289.60895
22.903492,120.27423,-55.27435,-123.97433,25.9664,289.6189
22.903479,120.274216,-54.34611,-121.82609,25.967625,289.6289
22.903467,120.27419,-53.39861,-119.63281,25.968847,289.639
22.903454,120.27418,-52.431618,-117.39422,25.97007,289.64914
22.90344,120.274155,-51.444935,-115.11,25.97129,289.65936
22.903427,120.27413,-50.438335,-112.77985,25.97251,289.6696
22.903412,120.27412,-49.411617,-110.40341,25.973724,289.67987
22.903399,120.27409,-48.364586,-107.98049,25.974934,289.6902
22.903385,120.27407,-47.297043,-105.51066,25.97614,289.7005
22.903372,120.27405,-46.208744,-102.99368,25.977335,289.71085
22.903357,120.274025,-45.09951,-100.42928,25.978525,289.72116
22.903343,120.274,-43.969162,-97.81716,25.979708,289.73148
22.903328,120.27398,-42.817474,-95.15703,25.980877,289.74176
22.903313,120.27396,-41.644276,-92.44863,25.982038,289.75198
22.903297,120.27393,-40.449368,-89.691666,25.983187,289.7622
22.903282,120.27391,-39.232574,-86.88592,25.984322,289.77234
22.903267,120.27389,-37.99375,-84.03117,25.985441,289.7824
22.90325,120.27386,-36.732685,-81.12715,25.986547,289.7924
22.903234,120.27383,-35.449265,-78.173676,25.987635,289.80225
22.90322,120.2738,-34.1433,-75.1705,25.988703,289.81204
22.903202,120.27378,-32.81464,-72.1175,25.989752,289.8217
22.903187,120.27375,-31.46316,-69.01451,25.990778,289.83124
22.90317,120.27373,-30.088781,-65.861404,25.991781,289.8406
22.903152,120.2737,-28.691313,-62.658043,25.99276,289.84982
22.903137,120.273674,-27.270708,-59.404408,25.993713,289.8589
22.903122,120.27364,-25.826866,-56.10033,25.994635,289.86777
22.903105,120.27361,-24.359703,-52.74595,25.995527,289.87646
22.903088,120.27359,-22.869106,-49.341133,25.996387,289.88492
22.90307,120.27356,-21.355083,-45.885952,25.997211,289.8932
22.903053,120.27353,-19.817566,-42.380566,25.998,289.90125
22.903034,120.2735,-18.256577,-38.825016,25.998745,289.90903
22.903017,120.27346,-16.672125,-35.219505,25.999449,289.91656
22.903,120.27344,-15.0641365,-31.564152,26.000107,289.9239
22.90298,120.27341,-13.432717,-27.859295,26.000717,289.9309
22.902964,120.27338,-11.77791,-24.105083,26.001278,289.93762
22.902945,120.273346,-10.0998335,-20.302015,26.001783,289.9441
22.902927,120.273315,-8.398595,-16.450218,26.002232,289.95026
22.90291,120.273285,-6.6742797,-12.550239,26.002619,289.95612
22.902891,120.273254,-4.9271126,-8.602439,26.002943,289.96167
22.902872,120.27322,-3.1572673,-4.6072783,26.003202,289.9669
22.902855,120.273186,-1.364996,-0.56531733,26.003391,289.9718
22.902836,120.273155,0.44947603,3.5229166,26.003508,289.97638
22.902817,120.273125,2.2857425,7.6568313,26.00355,289.98065
22.902798,120.273094,4.143591,11.835817,26.003511,289.98456
22.90278,120.273056,6.016581,16.053616,26.003395,289.98816
22.902761,120.27302,7.87151,20.28001,26.003199,289.99136
22.902742,120.27299,9.656039,24.472418,26.002949,289.99405
22.90272,120.272964,11.332524,28.610826,26.002678,289.99606
22.9027,120.272934,12.961868,32.78288,26.002403,289.99728
22.902678,120.272896,14.674697,37.129093,26.002068,289.99805
22.902657,120.272865,16.57558,41.727734,26.001556,289.99902
22.902636,120.27283,18.537476,46.355225,26.000801,290.00055
22.902617,120.2728,20.271996,50.64622,25.999912,290.00217
22.902594,120.27277,21.485806,54.282127,25.999126,290.0027
22.90257,120.272766,22.115986,57.22519,25.99867,290.00113
22.90254,120.27276,22.26051,59.570305,25.998642,289.99762
22.90251,120.272766,22.06889,61.45427,25.998981,289.99316
22.902473,120.27277,21.682737,63.11968,25.99948,289.9887
22.902435,120.27279,21.239407,64.86039,25.999811,289.98505
22.902393,120.272804,20.865774,66.93353,25.999706,289.98276
22.902351,120.27281,20.613998,69.36408,25.999144,289.98227
22.902308,120.27283,20.47184,72.058685,25.99829,289.9833
22.902266,120.272835,20.394197,74.87121,25.997345,289.9853
22.902231,120.27284,20.337296,77.56429,25.996464,289.9875
22.902199,120.27285,20.275766,79.86472,25.995731,289.9894
22.90218,120.27285,20.201218,81.529144,25.995182,289.99097
22.90217,120.27286,20.125177,82.46554,25.994766,289.99237
22.902168,120.27286,20.067175,82.65931,25.994457,289.99396
22.902178,120.272865,20.045168,82.110176,25.994259,289.99588
22.902193,120.27287,20.057816,80.79638,25.994213,289.99817
22.902214,120.27288,20.085907,78.68722,25.994383,290.00076
22.902239,120.2729,20.109327,75.81074,25.99481,290.00354
22.902266,120.272934,20.14023,72.43402,25.99545,290.0061
22.902294,120.272964,20.213606,68.91045,25.996159,290.0084
22.90232,120.272995,20.354315,65.51573,25.996794,290.01062
22.902346,120.273026,20.5138,62.20406,25.997303,290.01328
22.902374,120.273056,20.597805,58.806698,25.997719,290.01642
22.902401,120.273094,20.528032,55.200844,25.998112,290.01938
22.90243,120.27313,20.348442,51.471645,25.998568,290.0214
22.902462,120.27316,20.183884,47.76379,25.999052,290.02225
22.902498,120.27318,20.15242,44.16877,25.999464,290.02252
22.90254,120.27318,20.233873,40.63949,25.999647,290.02313
22.902586,120.27318,20.314495,37.103718,25.999615,290.02423
22.902632,120.27317,20.278759,33.55411,25.999485,290.02505
22.902678,120.27316,20.128948,30.153257,25.999393,290.02463
22.90272,120.27315,19.944826,27.137888,25.999392,290.02258
22.90276,120.27313,19.803913,24.71396,25.999428,290.01932
22.902792,120.273125,19.674055,22.916746,25.999382,290.01572
22.902815,120.27312,19.45629,21.684774,25.99918,290.01236
22.90283,120.27312,19.05432,20.914217,25.998873,290.00922
22.902836,120.27312,18.45931,20.44121,25.99869,290.0061
22.902836,120.27312,17.716354,20.086452,25.998775,290.003
22.902834,120.27312,16.88109,19.69621,25.999146,290.00024
22.902832,120.27312,15.984781,19.208809,25.999668,289.99808
22.90283,120.27311,15.043129,18.605148,26.000208,289.99646
22.90283,120.27311,14.067472,17.880587,26.000662,289.9952
22.902832,120.27311,13.068359,17.05167,26.001017,289.9939
22.902832,120.27311,12.052202,16.146591,26.001326,289.9923
22.902836,120.27311,11.020484,15.193675,26.001661,289.99036
22.902838,120.27311,9.971161,14.208087,26.002043,289.9881
22.90284,120.27311,8.903409,13.196416,26.002453,289.98566
22.902842,120.27311,7.8186383,12.161245,26.00287,289.9831
22.902845,120.27311,6.7201757,11.105935,26.003288,289.98047
22.902845,120.27311,5.6114388,10.034289,26.003704,289.97772
22.902845,120.27311,4.496055,8.949864,26.004116,289.9749
22.902847,120.27311,3.3775842,7.8565307,26.004524,289.97205
22.90285,120.27311,2.2596483,6.75801,26.004927,289.96912
22.90285,120.27311,1.1457219,5.6580734,26.00532,289.96613
22.90285,120.27311,0.039376203,4.560508,26.005705,289.9631
22.902851,120.27311,-1.0556564,3.4691176,26.006079,289.96008
22.902851,120.27311,-2.1358824,2.3877068,26.006441,289.95706
22.902851,120.27311,-3.197614,1.3201286,26.006792,289.954
22.902851,120.27311,-4.2372804,0.27030188,26.007128,289.95102
22.902851,120.27311,-5.251233,-0.7581665,26.007448,289.94806
22.902851,120.27312,-6.235759,-1.7611929,26.007751,289.94513
22.90285,120.27312,-7.187312,-2.734891,26.008038,289.94223
22.90285,120.27312,-8.102116,-3.6754403,26.008305,289.93948
22.90285,120.27312,-8.976547,-4.5788393,26.00855,289.93677
22.902847,120.27312,-9.806945,-5.4412675,26.008778,289.9342
22.902847,120.27312,-10.589576,-6.258624,26.008982,289.93173
