Latitude,Longitude,Altitude (m)
23.609577,-121.29104,12312.226
23.619833,-121.262856,12312.209
23.629917,-121.234924,12312.531
23.63972,-121.208206,12313.046
23.649265,-121.18272,12313.642
23.658583,-121.159225,12314.074
23.667727,-121.13706,12314.242
23.6767,-121.115,12314.294
23.68557,-121.09246,12314.361
23.694687,-121.06623,12314.84
23.7041,-121.03968,12315.436
23.7135,-121.014534,12315.988
23.722889,-120.9903,12316.416
23.732134,-120.96774,12316.578
23.741291,-120.9458,12316.499
23.750355,-120.92333,12316.37
23.75942,-120.89967,12316.339
23.768856,-120.8702,12317.102
23.778442,-120.841095,12318.222
23.788397,-120.81,12319.803
23.798162,-120.780754,12321.584
23.80743,-120.756454,12323.021
23.816196,-120.73583,12323.931
23.824602,-120.715324,12324.615
23.832775,-120.69542,12325.016
23.840727,-120.67949,12324.595
23.848352,-120.66974,12322.743
23.856503,-120.658195,12319.829
23.865276,-120.64079,12316.798
23.875072,-120.61752,12313.931
23.885605,-120.59166,12311.299
23.89639,-120.56421,12309.056
23.907421,-120.535576,12307.232
23.91878,-120.50518,12305.871
23.930103,-120.475975,12304.733
23.940977,-120.44797,12303.921
23.951105,-120.420555,12303.638
23.960917,-120.393074,12303.779
23.970638,-120.36657,12304.037
23.980286,-120.33972,12304.508
23.989786,-120.31225,12305.314
23.999172,-120.28538,12306.284
24.008293,-120.26163,12307.016
24.017258,-120.240135,12307.354
24.025934,-120.22217,12307.095
24.034653,-120.204994,12306.336
24.04423,-120.17864,12306.361
24.054317,-120.15281,12306.522
24.064457,-120.130554,12306.373
24.074928,-120.1056,12306.402
24.085772,-120.078896,12306.654
24.096718,-120.05281,12306.937
24.107653,-120.02448,12307.72
24.118387,-119.99694,12308.742
24.128883,-119.96702,12310.495
24.139095,-119.938,12312.667
24.149706,-119.90916,12314.827
24.160017,-119.87843,12317.632
24.16985,-119.848694,12320.927
24.179522,-119.82109,12324.237
24.18866,-119.79899,12326.984
24.196938,-119.78455,12328.552
24.205023,-119.7724,12328.953
24.212841,-119.76256,12328.186
24.22128,-119.748825,12326.738
24.230232,-119.73295,12324.81
24.239838,-119.71376,12322.719
24.250624,-119.68768,12320.985
24.262383,-119.656494,12319.912
24.274664,-119.62372,12319.422
24.286768,-119.59331,12319.207
24.29826,-119.566284,12319.106
24.30935,-119.53935,12319.277
24.319817,-119.514984,12319.497
24.329893,-119.49395,12319.3125
24.339306,-119.47899,12318.199
24.348482,-119.464874,12316.37
24.35788,-119.451775,12313.592
24.367596,-119.43969,12309.7705
24.377947,-119.422264,12305.741
24.389097,-119.39807,12302.193
24.401024,-119.36846,12299.442
24.413559,-119.33831,12297.049
24.426281,-119.30843,12294.996
24.438946,-119.277466,12293.511
24.451275,-119.24489,12292.939
24.463385,-119.21257,12293.021
24.47491,-119.18108,12293.793
24.48566,-119.1515,12295.139
24.496004,-119.12486,12296.526
24.50599,-119.10133,12297.613
24.515768,-119.079666,12298.307
24.525145,-119.059235,12298.724
24.534447,-119.03741,12299.123
24.544043,-119.01252,12299.758
24.55415,-118.98391,12300.845
24.56441,-118.95602,12302.085
24.574814,-118.92783,12303.4795
24.58515,-118.90237,12304.641
24.595148,-118.878654,12305.584
24.604906,-118.85526,12306.459
24.614473,-118.83164,12307.342
24.62385,-118.80928,12308.054
24.633259,-118.787025,12308.575
24.642992,-118.76199,12309.239
24.653084,-118.73617,12309.904
24.663038,-118.71322,12310.244
24.672947,-118.69205,12310.104
24.682747,-118.66979,12309.905
24.692688,-118.644905,12309.93
24.70262,-118.62244,12309.624
24.71258,-118.60033,12309.075
24.722416,-118.579605,12308.189
24.732407,-118.55648,12307.372
24.7428,-118.53149,12306.61
24.75333,-118.50667,12305.828
24.763802,-118.48056,12305.338
24.77428,-118.45285,12305.289
24.78496,-118.42397,12305.61
24.795782,-118.39488,12306.176
24.80611,-118.369026,12306.747
24.8161,-118.34558,12307.119
24.825592,-118.32479,12307.163
24.8351,-118.303116,12307.036
24.844557,-118.28183,12306.683
24.853916,-118.261406,12306.073
24.86366,-118.236885,12305.715
24.873814,-118.21016,12305.618
24.884089,-118.185814,12305.287
24.894363,-118.16302,12304.655
24.904684,-118.13761,12304.271
24.915031,-118.111176,12304.141
24.925236,-118.085594,12304.121
24.935427,-118.06062,12304.086
24.945318,-118.038605,12303.726
24.954836,-118.01982,12302.821
24.964632,-117.998985,12301.669
24.974808,-117.974106,12300.755
24.985064,-117.94729,12300.277
24.99532,-117.920815,12300.03
25.005642,-117.8973,12299.414
25.01604,-117.8731,12298.741
25.026318,-117.85049,12297.82
25.036617,-117.827255,12296.829
25.046907,-117.800575,12296.331
25.057177,-117.77202,12296.446
25.067684,-117.74049,12297.312
25.078506,-117.706505,12298.964
25.089602,-117.6685,12301.775
25.10028,-117.63547,12304.858
25.1098,-117.61167,12307.382
25.118513,-117.59336,12309.038
25.126385,-117.57904,12309.814
25.134184,-117.56089,12310.473
25.142445,-117.5383,12311.269
25.151203,-117.5131,12312.286
25.16046,-117.486916,12313.37
25.170004,-117.46308,12314.058
25.179844,-117.44319,12313.737
25.189241,-117.42869,12312.218
25.198177,-117.41587,12309.832
25.20718,-117.39998,12307.14
25.216484,-117.38022,12304.559
25.226871,-117.352295,12302.691
25.238266,-117.31822,12301.833
25.25019,-117.28397,12301.562
25.262148,-117.25209,12301.504
25.27349,-117.226654,12301.034
25.284075,-117.20355,12300.413
25.293966,-117.180084,12299.997
25.303532,-117.15578,12299.846
25.313095,-117.130554,12299.915
25.322496,-117.10875,12299.633
25.332308,-117.08416,12299.365
25.34276,-117.05479,12299.558
25.35341,-117.0242,12300.201
25.364079,-116.99313,12301.315
25.374254,-116.96335,12302.89
25.384094,-116.93615,12304.496
25.393635,-116.91169,12305.839
25.40295,-116.88821,12306.961
25.41216,-116.864334,12307.997
25.42101,-116.84039,12309.161
25.430058,-116.81455,12310.498
25.439259,-116.790535,12311.519
25.44852,-116.76618,12312.446
25.457653,-116.746574,12312.555
25.466434,-116.73366,12311.22
25.475004,-116.7227,12308.694
25.483854,-116.707344,12305.809
25.493505,-116.684235,12303.339
25.50405,-116.65569,12301.503
25.515392,-116.622826,12300.463
25.527372,-116.58727,12300.211
25.53934,-116.552605,12300.585
25.551271,-116.51875,12301.367
25.562283,-116.49076,12302.089
25.572159,-116.46631,12302.846
25.58117,-116.444954,12303.393
25.589787,-116.42619,12303.411
25.598263,-116.41112,12302.408
25.606829,-116.3957,12300.693
25.615822,-116.3789,12298.384
25.625463,-116.35829,12295.903
25.635746,-116.334526,12293.478
25.646677,-116.30735,12291.341
25.657907,-116.277336,12289.818
25.669569,-116.24436,12289.023
25.681307,-116.210335,12288.949
25.69279,-116.177765,12289.375
25.703493,-116.14896,12290.022
25.713648,-116.12212,12290.761
25.723389,-116.09425,12291.927
25.732786,-116.068954,12293.008
25.741634,-116.04899,12293.444
25.750193,-116.031044,12293.242
25.758627,-116.01558,12292.1455
25.767439,-115.99674,12290.731
25.777029,-115.97064,12289.817
25.787256,-115.94032,12289.552
25.797659,-115.91094,12289.561
25.808243,-115.880775,12289.942
25.818945,-115.852585,12290.211
25.829554,-115.82244,12290.9375
25.83988,-115.790474,12292.43
25.849781,-115.7613,12294.114
25.858913,-115.73578,12295.813
25.867767,-115.710724,12297.5
25.876852,-115.6843,12299.218
25.88593,-115.65877,12300.795
25.894642,-115.63642,12301.983
25.903212,-115.616714,12302.505
25.911442,-115.59875,12302.47
25.919964,-115.580055,12301.876
25.928953,-115.560165,12300.786
25.938126,-115.539444,12299.431
25.947615,-115.51659,12298.047
25.957874,-115.4863,12297.462
25.968952,-115.45005,12297.973
25.98032,-115.411835,12299.508
25.991322,-115.37828,12301.349
26.001673,-115.34802,12303.364
26.01091,-115.32876,12304.247
26.019173,-115.3162,12303.786
26.027071,-115.30165,12302.781
26.035086,-115.283424,12301.659
26.043364,-115.264145,12300.309
26.052404,-115.24448,12298.406
26.06232,-115.22091,12296.38
26.072956,-115.196365,12294.114
26.083775,-115.17226,12291.663
26.09506,-115.14503,12289.377
26.106064,-115.11578,12287.8
26.11715,-115.080055,12287.672
26.12846,-115.044624,12288.2705
26.139591,-115.01218,12289.127
26.15029,-114.9811,12290.336
26.16031,-114.95294,12291.67
26.169987,-114.92601,12293.009
26.179075,-114.90126,12294.275
26.187593,-114.87873,12295.343
26.195923,-114.85773,12296.039
26.204285,-114.835884,12296.507
26.213179,-114.81515,12296.255
26.22204,-114.79608,12295.377
26.231,-114.7757,12294.203
26.240278,-114.75504,12292.614
26.250023,-114.72977,12291.308
26.260334,-114.69975,12290.612
26.270937,-114.66894,12290.345
26.28174,-114.63593,12290.761
26.292547,-114.601974,12291.876
26.303165,-114.5704,12293.209
26.313078,-114.54218,12294.62
26.322308,-114.51788,12295.806
26.330757,-114.50054,12295.977
26.33855,-114.486244,12295.291
26.346617,-114.46809,12294.302
26.355412,-114.443695,12293.598
26.364592,-114.41848,12292.976
26.374321,-114.391846,12292.402
26.384571,-114.36316,12292.031
26.39495,-114.33424,12291.872
26.405567,-114.30187,12292.376
26.41631,-114.26587,12293.895
26.426365,-114.23339,12295.956
26.435661,-114.205765,12298.008
26.44442,-114.183,12299.513
26.452866,-114.16326,12300.267
26.460936,-114.14452,12300.518
26.468973,-114.1247,12300.472
26.477324,-114.101425,12300.508
26.486013,-114.07529,12300.85
26.495335,-114.04682,12301.416
26.505241,-114.017365,12302.059
26.515167,-113.98884,12302.766
26.524927,-113.961464,12303.491
26.534443,-113.93254,12304.635
26.5436,-113.90574,12305.848
26.552414,-113.88051,12307.003
26.561144,-113.85423,12308.339
26.570087,-113.82515,12310.074
26.579208,-113.79478,12312.187
26.588102,-113.76941,12313.8955
26.596401,-113.75149,12314.5
26.604206,-113.737495,12313.959
26.611713,-113.72673,12312.136
26.619688,-113.71278,12309.545
26.628218,-113.69361,12306.903
26.637495,-113.66883,12304.639
26.647594,-113.64185,12302.548
26.658434,-113.61384,12300.507
26.669788,-113.5844,12298.599
26.681253,-113.55188,12297.413
26.692417,-113.51871,12297.024
26.7033,-113.484344,12297.525
26.713495,-113.45261,12298.588
26.723219,-113.422935,12299.932
26.732536,-113.39673,12301.096
26.741642,-113.371086,12302.167
26.75015,-113.350395,12302.615
26.758093,-113.33383,12302.207
26.76604,-113.314606,12301.582
26.774513,-113.291435,12300.982
26.783426,-113.2672,12300.308
26.793072,-113.23795,12300.081
26.803186,-113.20513,12300.566
26.81361,-113.1706,12301.723
26.82403,-113.13464,12303.732
26.834213,-113.10221,12305.9
26.843472,-113.07483,12307.978
26.851936,-113.04849,12310.225
26.860191,-113.02246,12312.462
26.86809,-112.99993,12314.24
26.875404,-112.982,12315.25
26.882843,-112.96363,12315.64
26.890657,-112.9425,12315.773
26.898983,-112.91896,12315.813
26.907888,-112.89432,12315.64
26.916954,-112.86858,12315.526
26.926043,-112.84393,12315.282
26.935463,-112.81804,12314.977
26.94497,-112.79405,12314.296
26.954277,-112.769875,12313.544
26.963406,-112.74402,12313.029
26.972654,-112.716255,12312.834
26.9819,-112.690056,12312.516
26.99125,-112.6621,12312.426
27.000462,-112.63537,12312.333
27.009638,-112.60962,12312.105
27.018604,-112.58462,12311.812
27.027437,-112.56178,12311.119
27.035923,-112.540306,12310.146
27.044464,-112.51824,12308.959
27.053257,-112.49507,12307.616
27.062527,-112.467834,12306.585
27.071892,-112.44024,12305.799
27.08166,-112.41023,12305.372
27.09151,-112.37918,12305.407
27.101248,-112.34956,12305.628
27.11073,-112.32252,12305.735
27.119705,-112.29745,12305.744
27.128439,-112.27255,12305.75
27.13698,-112.24823,12305.667
27.145355,-112.22502,12305.391
27.153784,-112.203255,12304.639
27.162222,-112.18098,12303.684
27.171036,-112.156136,12302.731
27.180132,-112.13136,12301.621
27.189333,-112.1063,12300.44
27.19853,-112.08133,12299.2295
27.207731,-112.056694,12297.913
27.217173,-112.029816,12296.792
27.226885,-111.999626,12296.213
27.236769,-111.96637,12296.416
27.246668,-111.93062,12297.632
27.25638,-111.89716,12299.261
27.265722,-111.867035,12300.921
27.274647,-111.83641,12302.999
27.283169,-111.80694,12305.293
27.291235,-111.779884,12307.569
27.298706,-111.75581,12309.613
27.306137,-111.72905,12311.894
27.313656,-111.702385,12314.169
27.321222,-111.6774,12316.124
27.329014,-111.65215,12317.815
27.336515,-111.63102,12318.837
27.343712,-111.61195,12319.211
27.351227,-111.59194,12319.038
27.35891,-111.57175,12318.373
27.36658,-111.55467,12316.842
27.374367,-111.5374,12314.699
27.383009,-111.51454,12312.495
27.39224,-111.48906,12310.377
27.40205,-111.45833,12308.938
27.412424,-111.424774,12308.15
27.422737,-111.39139,12307.981
27.432585,-111.36385,12307.557
27.44218,-111.33681,12307.138
27.45141,-111.31125,12306.614
27.460054,-111.2866,12306.172
27.468325,-111.263885,12305.519
27.476767,-111.23935,12304.861
27.485424,-111.21084,12304.738
27.494493,-111.18221,12304.678
27.50369,-111.15462,12304.548
27.512955,-111.12699,12304.406
27.521816,-111.099625,12304.502
27.530901,-111.06873,12305.133
27.539948,-111.03628,12306.391
27.548853,-111.0055,12307.881
27.557274,-110.97758,12309.41
27.565441,-110.95172,12310.744
27.573666,-110.92515,12311.982
27.581585,-110.90083,12312.957
27.589155,-110.8791,12313.4795
27.59652,-110.85917,12313.442
27.603786,-110.84133,12312.639
27.61132,-110.825226,12310.814
27.619259,-110.80807,12308.238
27.627674,-110.78801,12305.374
27.636559,-110.76589,12302.326
27.646011,-110.74026,12299.455
27.65629,-110.70881,12297.245
27.667114,-110.67249,12296.099
27.678192,-110.63361,12296.058
27.689226,-110.59369,12297.101
27.699558,-110.559265,12298.461
27.708935,-110.528275,12300.089
27.717402,-110.50201,12301.531
27.725264,-110.47713,12302.86
27.732746,-110.45083,12304.446
27.7401,-110.42377,12306.242
27.747437,-110.39892,12307.736
27.7549,-110.37548,12308.778
27.762667,-110.34928,12309.826
27.770813,-110.32206,12310.806
27.778828,-110.29544,12311.798
27.786873,-110.26899,12312.709
27.794704,-110.24319,12313.6
27.802559,-110.217674,12314.39
27.810688,-110.19053,12315.206
27.818926,-110.16398,12315.895
27.8269,-110.139046,12316.411
27.834637,-110.11599,12316.612
27.84251,-110.093285,12316.398
27.850368,-110.07139,12315.779
27.858387,-110.0476,12315.083
27.866734,-110.0211,12314.57
27.875706,-109.98763,12315.06
27.885096,-109.95328,12316.256
27.895144,-109.91532,12318.533
27.905064,-109.88433,12320.786
27.91466,-109.86007,12322.557
27.924156,-109.83725,12324.173
27.93364,-109.817444,12325.398
27.943136,-109.80056,12326.099
27.953012,-109.78404,12326.329
27.963655,-109.76269,12326.746
27.97547,-109.73785,12327.212
27.987806,-109.713715,12327.559
28.000807,-109.69079,12327.35
28.013588,-109.66896,12326.934
28.026556,-109.64194,12327.141
28.04002,-109.61043,12328.111
28.053331,-109.58088,12329.411
28.066229,-109.554504,12330.734
28.078617,-109.532104,12331.707
28.090954,-109.51172,12332.093
28.103027,-109.49464,12331.658
28.115002,-109.47549,12331.035
28.127031,-109.45317,12330.653
28.139181,-109.43029,12330.33
28.152018,-109.40517,12330.032
28.165394,-109.37911,12329.705
28.179081,-109.34894,12330.035
28.192877,-109.31776,12330.905
28.206364,-109.28888,12331.996
28.21946,-109.261406,12333.283
28.231941,-109.23586,12334.7295
28.244194,-109.212,12336.018
28.256275,-109.19012,12336.937
28.268042,-109.17008,12337.46
28.279678,-109.15139,12337.484
28.291126,-109.13513,12336.825
28.30296,-109.119064,12335.359
28.315212,-109.10045,12333.5625
28.327892,-109.07856,12331.818
28.341166,-109.05344,12330.298
28.35498,-109.02538,12329.1875
28.369139,-108.99447,12328.718
28.383299,-108.96495,12328.54
28.39733,-108.93549,12328.728
28.411104,-108.90636,12329.281
28.42432,-108.87967,12329.971
28.437002,-108.85444,12330.792
28.449358,-108.83113,12331.464
28.461475,-108.80885,12331.943
28.473438,-108.78842,12332.01
28.48548,-108.76718,12331.872
28.49784,-108.74384,12331.696
28.510342,-108.71898,12331.701
28.52311,-108.693054,12331.829
28.53611,-108.66563,12332.206
28.549166,-108.63748,12332.899
28.562271,-108.60917,12333.836
28.5751,-108.58247,12334.845
28.58782,-108.55464,12336.181
28.600138,-108.52868,12337.614
28.612206,-108.50422,12338.958
28.62394,-108.4835,12339.78
28.635506,-108.46433,12340.075
28.647064,-108.443535,12340.222
28.658907,-108.420906,12340.326
28.670988,-108.39781,12340.329
28.683092,-108.37755,12339.787
28.695219,-108.357765,12338.864
28.707819,-108.33467,12337.92
28.720724,-108.30969,12337.122
28.733839,-108.28372,12336.475
28.747164,-108.25226,12336.832
28.760592,-108.21929,12337.997
28.77404,-108.18774,12339.546
28.787128,-108.16035,12340.955
28.799593,-108.13829,12341.793
28.811401,-108.11644,12342.576
28.822933,-108.09463,12343.275
28.834383,-108.07408,12343.617
28.8458,-108.053635,12343.694
28.857151,-108.03511,12343.272
28.869253,-108.012634,12342.694
28.881989,-107.986084,12342.402
28.895073,-107.95855,12342.323
28.908197,-107.92948,12342.696
28.921238,-107.89886,12343.758
28.934258,-107.87028,12344.89
28.947046,-107.843575,12346.011
28.959345,-107.8195,12346.957
28.971302,-107.79738,12347.617
28.982767,-107.77679,12348.045
28.994118,-107.75898,12347.77
29.005621,-107.74093,12346.964
29.017239,-107.72231,12345.775
29.029232,-107.70271,12344.207
29.04181,-107.6819,12342.277
29.054836,-107.65636,12340.737
29.068405,-107.62626,12339.877
29.082283,-107.59415,12339.714
29.096167,-107.56284,12339.989
29.109903,-107.53209,12340.645
29.123146,-107.5024,12341.731
29.13585,-107.47662,12342.69
29.148113,-107.45112,12343.764
29.160141,-107.42342,12345.336
29.171888,-107.39536,12347.352
29.183746,-107.36694,12349.613
29.195463,-107.342316,12351.511
29.206665,-107.32536,12352.213
29.217398,-107.31255,12351.713
29.228327,-107.29292,12351.186
29.239166,-107.272156,12350.262
29.248966,-107.25725,12348.099
29.258196,-107.24073,12345.084
29.267557,-107.21681,12342.039
29.277288,-107.18573,12339.562
29.287552,-107.146576,12338.322
29.297916,-107.10251,12338.649
29.30764,-107.05703,12340.671
29.316565,-107.013054,12344.022
29.325134,-106.971855,12347.984
29.332357,-106.93916,12351.839
29.337477,-106.917885,12354.902
29.34132,-106.90201,12356.992
29.344908,-106.88351,12358.694
29.348822,-106.8601,12360.516
29.353489,-106.83252,12362.533
29.358595,-106.80874,12363.854
29.364168,-106.78506,12364.591
29.370197,-106.76098,12364.835
29.376698,-106.733894,12365.049
29.383202,-106.70647,12365.311
29.389217,-106.681885,12365.381
29.395151,-106.6558,12365.619
29.401323,-106.630165,12365.632
29.407799,-106.6054,12365.239
29.414635,-106.5789,12364.704
29.421204,-106.55216,12364.321
29.4277,-106.52779,12363.594
29.43414,-106.50328,12362.722
29.440975,-106.47501,12362.099
29.448011,-106.44615,12361.622
29.455019,-106.41608,12361.538
29.462381,-106.38349,12361.909
29.469557,-106.35224,12362.536
29.476166,-106.32705,12362.686
29.482517,-106.30336,12362.432
29.488894,-106.27703,12362.269
29.494938,-106.25227,12362.0
29.500784,-106.23069,12361.172
29.506956,-106.20597,12360.303
29.513391,-106.17837,12359.706
29.520329,-106.14766,12359.5205
29.527683,-106.11634,12359.551
29.534582,-106.09361,12358.612
29.540976,-106.0707,12357.517
29.547396,-106.045555,12356.485
29.554255,-106.01677,12355.739
29.561367,-105.9837,12355.813
29.56819,-105.95252,12356.285
29.575047,-105.922485,12356.832
29.581861,-105.89382,12357.312
29.588676,-105.86559,12357.694
29.59546,-105.83658,12358.2
29.601355,-105.809,12359.048
29.607199,-105.78213,12359.847
29.612793,-105.758354,12360.206
29.618422,-105.73483,12360.232
29.624447,-105.71012,12359.955
29.630543,-105.68415,12359.689
29.636927,-105.65482,12359.792
29.643152,-105.62961,12359.508
29.649292,-105.6057,12358.878
29.655668,-105.57972,12358.218
29.662376,-105.550766,12357.832
29.669117,-105.52283,12357.407
29.675701,-105.49495,12357.1455
29.682201,-105.46782,12356.85
29.688625,-105.44099,12356.54
29.695312,-105.41042,12356.704
29.702288,-105.37976,12356.987
29.70898,-105.34709,12357.991
29.715641,-105.31243,12359.7705
29.722332,-105.276886,12362.187
29.728912,-105.242744,12364.927
29.734806,-105.21332,12367.565
29.74045,-105.18264,12370.498
29.745365,-105.1582,12372.864
29.749847,-105.13436,12374.98
29.754389,-105.11091,12376.663
29.75898,-105.08365,12378.667
29.763874,-105.05706,12380.431
29.76894,-105.033,12381.598
29.774017,-105.01209,12381.868
29.779135,-104.99267,12381.305
29.784206,-104.97297,12380.202
29.78989,-104.95194,12378.4795
29.795383,-104.93301,12376.16
