Latitude,Longitude,Altitude (m)
-38.28955232280356,129.38305960895116,12024.934616088867
-38.277961309151145,129.37964572355878,12025.24782371521
-38.26638532923888,129.376249255949,12025.564664840698
-38.25480183245654,129.37281795277403,12025.8793258667
-38.24322585254428,129.36942148516425,12026.195440292358
-38.23164611419698,129.36602501755448,12026.50937461853
-38.220066375849676,129.36262854994473,12026.826942443848
-38.20848287906734,129.35923208233496,12027.141603469849
-38.196906899155074,129.3558530325078,12027.457717895508
-38.18532716080777,129.3524043115502,12027.773105621338
-38.17375118089551,129.34902526172306,12028.087766647339
-38.16217895941828,129.34561137633068,12028.403881072998
-38.15061049637609,129.3422323265035,12028.719268798828
-38.13902699959375,129.33885327667636,12029.036109924316
-38.12745101968149,129.33540455571875,12029.351497650146
-38.11588255663929,129.332008088109,12029.667612075806
-38.10430657672703,129.32864645606446,12029.984453201294
-38.09273059681477,129.32526740623732,12030.300567626953
-38.08116213377257,129.3218361030623,12030.616682052612
-38.069593670730384,129.31843963545256,12030.9335231781
-38.05802520768819,129.31507800340802,12031.250364303589
-38.046452986210966,129.31168153579824,12031.56429862976
-38.034888281603806,129.3082850681885,12031.882593154907
-38.02331230169154,129.30487118279612,12032.200160980225
-38.01174383864935,129.30147471518634,12032.516275405884
-38.000182892477234,129.2981130831418,12032.83529663086
-37.98861442943504,129.2946643621842,12033.148504257202
-37.97704596639285,129.29132014792228,12033.46534538269
-37.965477503350655,129.2879236803125,12033.785093307495
-37.95391655717854,129.284562048268,12034.099027633667
-37.942351852571385,129.2811655806582,12034.418775558472
-37.93079842326934,129.2778213663963,12034.73488998413
-37.919233718662184,129.2743726454387,12035.05100440979
-37.90766525561999,129.27104584895937,12035.369298934937
-37.89610430944787,129.26768421691483,12035.684686660767
-37.88454336327575,129.26428774930508,12036.004434585571
-37.872989933973706,129.26085644613008,12036.32054901123
-37.86142898780159,129.25751223186816,12036.638843536377
-37.84986804162947,129.25413318204102,12036.956411361694
-37.83831085389239,129.25075413221384,12037.273979187012
-37.826761183025376,129.2473750823867,12037.59154701233
-37.81519647841822,129.24403086812478,12037.908388137817
-37.80364680755121,129.2406169827324,12038.22958946228
-37.79208961981413,129.23723793290526,12038.543523788452
-37.78053994894712,129.23389371864332,12038.864725112915
-37.76899027808011,129.23051466881617,12039.180112838745
-37.75742557347296,129.22715303677165,12039.498407363892
-37.74588717791106,129.22375656916188,12039.818881988525
-37.73433374860901,129.22041235489996,12040.134996414185
-37.72278031930696,129.2170333050728,12040.45474433899
-37.71123064843996,129.21365425524564,12040.772312164307
-37.69968473600798,129.2102752054185,12041.092060089111
-37.6881275482709,129.20693099115658,12041.4089012146
-37.676589152709,129.2035171057642,12041.727922439575
-37.66504324027703,129.2002077270675,12042.048397064209
-37.65349732784505,129.19679384167512,12042.365238189697
-37.64195141541308,129.19348446297843,12042.68716621399
-37.630405502981105,129.1901054131513,12043.003280639648
-37.618859590549135,129.18674378110674,12043.320848464966
-37.60732495342227,129.1833821490622,12043.642776489258
-37.595782799425336,129.18003793480028,12043.960344314575
-37.58424440386344,129.17665888497314,12044.28009223938
-37.572694732996425,129.17333208849382,12044.598386764526
-37.56116009586956,129.1699704564493,12044.91958808899
-37.54961418343759,129.1665565710569,12045.237155914307
-37.5380870631808,129.16317752122976,12045.55763053894
-37.52654490918386,129.15985072475044,12045.876651763916
-37.515010272057,129.15654134605376,12046.19712638855
-37.50347563493013,129.15312746066138,12046.515420913696
-37.49194475623831,129.1498354997473,12046.835168838501
-37.48041387754648,129.14649128548538,12047.154916763306
-37.46887548198458,129.14312965344084,12047.47466468811
-37.457352120162824,129.1397680213963,12047.795866012573
-37.445806207730854,129.1364586426996,12048.115613937378
-37.434275329039025,129.13307959287246,12048.434635162354
-37.42275196721727,129.12973537861055,12048.757289886475
-37.41121733009041,129.12640858213123,12049.075584411621
-37.39969772670369,129.1230295323041,12049.393878936768
-37.38815933114179,129.11966790025954,12049.71580696106
-37.37664348619011,129.11635852156286,12050.037008285522
-37.36512012436835,129.1129968895183,12050.357482910156
-37.3535967625466,129.10963525747377,12050.677230834961
-37.34206588385477,129.10629104321185,12050.999158859253
-37.33054252203302,129.1029119933847,12051.3174533844
-37.31901916021126,129.09967228581846,12051.638654708862
-37.30749579838951,129.0962932359913,12051.961309432983
-37.29597995343783,129.09293160394677,12052.27960395813
-37.28446410848615,129.0896570608153,12052.602258682251
-37.272936988229354,129.08626059320554,12052.922733306885
-37.26142114327767,129.08296863229148,12053.243207931519
-37.249901539890956,129.0796766713774,12053.56586265564
-37.23839321180935,129.07633245711546,12053.886337280273
-37.22687736685767,129.0729534072883,12054.208265304565
-37.21536152190599,129.0696091930264,12054.530193328857
-37.2038456769543,129.06633464989494,12054.850667953491
-37.19232983200262,129.062990435633,12055.172595977783
-37.18082150392102,129.0596810569363,12055.494524002075
-37.169313175839406,129.05631942489177,12055.812818527222
-37.157797330887725,129.05299262841245,12056.13765335083
-37.14629651967619,129.04966583193317,12056.458127975464
-37.13477315785443,129.04633903545385,12056.780055999756
-37.1232723466429,129.0429774034093,12057.101984024048
-37.111771535431366,129.0397376958431,12057.42318534851
-37.100270724219826,129.03637606379854,12057.745113372803
-37.08876239613822,129.03303184953663,12058.069221496582
-37.077257826491646,129.0297224708399,12058.388242721558
-37.065745739975,129.02641309214323,12058.711624145508
-37.05425620406858,129.02310371344655,12059.035005569458
-37.042751634422004,129.01979433474983,12059.355480194092
-37.03125082321047,129.01645012048792,12059.6803150177
-37.01975752886901,129.01317557735646,12060.002243041992
-37.008256717657474,129.00988361644238,12060.324897766113
-36.996755906445934,129.00653940218047,12060.645372390747
-36.98526261210447,129.00321260570115,12060.970207214355
-36.97376180089294,128.99992064478707,12061.292135238647
-36.96227226498651,128.99661126609038,12061.616243362427
-36.95077521221001,128.9933193051763,12061.938171386719
-36.93927440099848,128.98995767313176,12062.261552810669
-36.927788623527086,128.98666571221767,12062.58493423462
-36.9163028460557,128.98340858686882,12062.90831565857
-36.90480955171424,128.9800817903895,12063.228790283203
-36.893316257372774,128.97675499391022,12063.55507850647
-36.88183047990138,128.9734281974309,12063.87773323059
-36.87034470242999,128.97018848986465,12064.201114654541
-36.858858924958604,128.96682685782014,12064.523769378662
-36.847376905922246,128.96355231468866,12064.84860420227
-36.83589112845086,128.96024293599197,12065.171258926392
-36.82440159254443,128.95693355729526,12065.494640350342
-36.81292333194312,128.95367643194643,12065.81947517395
-36.801445071341796,128.9503322176845,12066.1428565979
-36.789963052305446,128.94705767455304,12066.46623802185
-36.778481033269095,128.94378313142155,12066.7896194458
-36.767006531102815,128.94047375272487,12067.113000869751
-36.75552451206646,128.93716437402819,12067.43710899353
-36.74405000990018,128.9338898308967,12067.76121711731
-36.7325755077339,128.93061528776525,12068.087505340576
-36.72109724713258,128.92727107350333,12068.409433364868
-36.70962650340134,128.9240662015023,12068.734994888306
-36.698155759670094,128.9207219872404,12069.060556411743
-36.68668501593885,128.91746486189155,12069.383211135864
-36.67521803064264,128.91412064762963,12069.71022605896
-36.66374352847636,128.91088094006338,12070.032154083252
-36.652272784745115,128.9075889791493,12070.359895706177
-36.64080955788395,128.90431443601784,12070.683277130127
-36.6293388141527,128.90100505732116,12071.009565353394
-36.61787558729153,128.89773051418967,12071.332220077515
-36.606404843560284,128.89445597105822,12071.657781600952
-36.59494913356919,128.89121626349197,12071.98334312439
-36.58348590670802,128.88794172036052,12072.30599784851
-36.57202643828188,128.8846149238812,12072.633012771606
-36.56056696985575,128.88139263409758,12072.960027694702
-36.549103742994575,128.8780832554009,12073.281955718994
-36.53764427456844,128.87484354783464,12073.611150741577
-36.52619232301238,128.8715690047032,12073.935258865356
-36.51472909615121,128.86832929713694,12074.260820388794
-36.503277144595145,128.86501991844025,12074.585655212402
-36.49182143460405,128.861780210874,12074.911943435669
-36.480376999918064,128.85854050330778,12075.238231658936
-36.468917531491925,128.8552311246111,12075.563066482544
-36.4574693383709,128.8519565814796,12075.88935470581
-36.4460136283798,128.84869945613076,12076.214189529419
-36.43456919369381,128.8454423307819,12076.541204452515
-36.42312100057279,128.84220262321568,12076.866765975952
-36.411680324321836,128.8389106623016,12077.193054199219
-36.400228372765774,128.83565353695275,12077.519342422485
-36.38878017964475,128.8323964116039,12077.845630645752
-36.3773395033938,128.82912186847244,12078.173372268677
-36.36589506870781,128.8258647431236,12078.497480392456
-36.35445439245686,128.82262503555734,12078.82594871521
-36.3430137162059,128.8193853279911,12079.152236938477
-36.331573039954954,128.81611078485963,12079.475618362427
-36.320139880574075,128.8128710772934,12079.805540084839
-36.30870672119319,128.80959653416193,12080.131828308105
-36.29726604494224,128.80639166216093,12080.458116531372
-36.28583288556136,128.80308228346422,12080.784404754639
-36.27439596774544,128.799842575898,12081.111419677734
-36.2629665667996,128.79663770389698,12081.43916130066
-36.25153340741872,128.79336316076552,12081.765449523926
-36.240111523342954,128.79012345319927,12082.095371246338
-36.22867460552703,128.78684891006782,12082.418752670288
-36.21723768771112,128.78367887363203,12082.7486743927
-36.20581956207039,128.78042174828317,12083.075689315796
-36.194390161124545,128.77716462293432,12083.402704238892
-36.18297203548381,128.7739249153681,12083.731899261475
-36.17155015140804,128.77068520780185,12084.058187484741
-36.16011323359212,128.7674106646704,12084.384475708008
-36.148698866386425,128.76420579266937,12084.71367073059
-36.137280740745695,128.76096608510315,12085.040685653687
-36.12585885666992,128.75779604866736,12085.36915397644
-36.11444824789926,128.75448666997067,12085.697622299194
-36.10302260538845,128.75128179796965,12086.02536392212
-36.09161199661779,128.74804209040343,12086.353832244873
-36.080186354106985,128.74480238283718,12086.681573867798
-36.068775745336325,128.7415975108362,12087.008588790894
-36.057365136565664,128.7384274744004,12087.338510513306
-36.04595828623004,128.73518776683417,12087.664798736572
-36.03454767745938,128.73184355257223,12087.994720458984
-36.023140827123754,128.72869093391907,12088.32246208191
-36.01172645991806,128.72546864413545,12088.651657104492
-36.00032336801747,128.72226377213445,12088.979398727417
-35.98892403455192,128.71904148235083,12089.30932044983
-35.97752094265133,128.71581919256718,12089.634881973267
-35.96611785075074,128.7126143205662,12089.967710494995
-35.95471475885016,128.70940944856517,12090.29545211792
-35.94331166694957,128.70613490543371,12090.623193740845
-35.93190857504898,128.70294745121532,12090.954568862915
-35.9205167584535,128.69975999699693,12091.28158378601
-35.90911742498795,128.6965551249959,12091.611505508423
-35.897721849957435,128.6933154174297,12091.942153930664
-35.88632627492692,128.69012796321127,12092.271348953247
-35.874934458331445,128.68690567342765,12092.598363876343
-35.86353512486589,128.68366596586142,12092.928285598755
-35.85214706670545,128.68047851164303,12093.258207321167
-35.84076276698004,128.67729105742464,12093.58740234375
-35.829378467254635,128.67410360320625,12093.91950416565
-35.81798289222412,128.6708464778574,12094.245792388916
-35.806598592498716,128.6676764414216,12094.576440811157
-35.79521429277331,128.66447156942058,12094.909269332886
-35.783833751482945,128.6612666974196,12095.234830856323
-35.7724456933225,128.65813149654903,12095.567659378052
-35.7610726689022,128.65492662454804,12095.897581100464
-35.74968461074176,128.65172175254702,12096.227502822876
-35.738311586321466,128.64848204498077,12096.556697845459
-35.726931045031094,128.645312008545,12096.8873462677
-35.7155580206108,128.64214197210921,12097.217994689941
-35.70417747932043,128.63897193567342,12097.548643112183
-35.692804454900134,128.6357496458898,12097.878564834595
-35.6814276720448,128.63252735610618,12098.208486557007
-35.670065922929616,128.62935731967042,12098.539861679077
-35.65868914007428,128.62620470101726,12098.871963500977
-35.647323632524056,128.62301724679884,12099.20043182373
-35.6359543665388,128.61984721036308,12099.533987045288
-35.62459637585865,128.61660750279682,12099.861728668213
-35.61322335143835,128.61343746636106,12100.1960105896
-35.601850327018056,128.61026742992527,12100.522298812866
-35.59049985320798,128.60709739348948,12100.853673934937
-35.57913434565776,128.60387510370586,12101.187955856323
-35.56778387184767,128.60075732061793,12101.517877578735
-35.55641836429745,128.59758728418214,12101.849252700806
-35.545060373617304,128.59438241218115,12102.180627822876
-35.53370989980723,128.59121237574536,12102.511276245117
-35.522351909127075,128.5880597570922,12102.843378067017
-35.51099391844692,128.58490713843904,12103.174753189087
-35.499643444636845,128.58170226643801,12103.508308410645
-35.48829297082677,128.57856706556746,12103.837503433228
-35.47694625545173,128.57536219356646,12104.172512054443
-35.46559954007669,128.57226182826113,12104.501707077026
-35.45424530783157,128.5690569562601,12104.832355499268
-35.442902350891565,128.56588691982435,12105.167364120483
-35.431555635516524,128.5627691367364,12105.498012542725
-35.42021643701156,128.559581682518,12105.830114364624
-35.40886972163652,128.55644648164747,12106.163669586182
-35.397534281566585,128.5533112807769,12106.494318008423
-35.386195083061615,128.55012382655852,12106.826419830322
-35.374848367686575,128.54695379012273,12107.158521652222
-35.36352044448672,128.54380117146957,12107.490623474121
-35.35218500441678,128.54061371725118,12107.82345199585
-35.340842047476784,128.53749593416325,12108.156280517578
-35.32951412427692,128.5343607332927,12108.487655639648
-35.318182442642026,128.5311906968569,12108.822664260864
-35.30685451944217,128.52807291376897,12109.152585983276
-35.29552283780727,128.5249202951158,12109.486867904663
-35.28419867304245,128.52175025868002,12109.821876525879
-35.27287074984259,128.51861505780946,12110.151071548462
-35.26154658507777,128.51547985693892,12110.486806869507
-35.25022617874798,128.51230982050313,12110.819635391235
-35.23889825554812,128.50917461963257,12111.149557113647
-35.22758160765338,128.5060220009794,12111.486019134521
-35.21626120132359,128.50292163567408,12111.81884765625
-35.20494455342884,128.49976901702092,12112.151676177979
-35.193635422404164,128.49663381615036,12112.485231399536
-35.18231877450941,128.4934986152798,12112.819513320923
-35.17100964348474,128.49038083219187,12113.150888442993
-35.15968923715495,128.4872282135387,12113.487350463867
-35.14837634769523,128.48411043045078,12113.820178985596
-35.13705969980049,128.48099264736283,12114.152280807495
-35.12575432721085,128.4778574464923,12114.48801612854
-35.114460229926316,128.47473966340434,12114.821571350098
-35.103143582031564,128.47165671588164,12115.153673171997
-35.091845726312,128.46850409722848,12115.4908618927
-35.080540353722355,128.46535147857531,12115.8229637146
-35.069242498002794,128.4622685310526,12116.157245635986
-35.057944642283225,128.45915074796466,12116.490800857544
-35.04664302812862,128.4560155470941,12116.826536178589
-35.03534141397402,128.45291518178877,12117.159364700317
-35.02405483355956,128.44977998091824,12117.495100021362
-35.01276073627503,128.4466796156129,12117.82792854309
-35.001470397425535,128.44357925030758,12118.163663864136
-34.99017254170597,128.44044404943702,12118.496492385864
-34.978882202856475,128.43734368413172,12118.83222770691
-34.96759186400698,128.43420848326116,12119.165782928467
-34.956309042027556,128.43110811795583,12119.50224494934
-34.945026220048135,128.42802517043313,12119.835800170898
-34.933743398068714,128.4249422229104,12120.172988891602
-34.92246433452433,128.42180702203987,12120.505090713501
-34.91117399567484,128.41872407451714,12120.841552734375
-34.899898690565486,128.4156062914292,12121.17728805542
-34.888615868586065,128.4125233439065,12121.510843276978
-34.87733680504168,128.40945781416642,12121.84803199768
-34.866069016802406,128.4063748666437,12122.18086051941
-34.854793711693056,128.40327450133836,12122.516595840454
-34.84352216501874,128.40013930046783,12122.853784561157
-34.83225061834443,128.39707377072773,12123.190246582031
-34.82098283010515,128.3939734054224,12123.524528503418
-34.80971504186588,128.39087304011707,12123.860263824463
-34.798454770496676,128.38780751037697,12124.196725845337
-34.787179465387325,128.38470714507164,12124.529554367065
-34.77591167714805,128.38160677976634,12124.866743087769
-34.764647647343814,128.37852383224362,12125.202478408813
-34.75339865127972,128.37544088472092,12125.538213729858
-34.742138379910514,128.37241019054605,12125.875402450562
-34.73088562541139,128.3692749896755,12126.210411071777
-34.71961783717211,128.36622687771802,12126.54759979248
-34.708365082672984,128.3631439301953,12126.884061813354
-34.69711984504392,128.3600784004552,12127.218343734741
-34.685863332109754,128.3569954529325,12127.555532455444
-34.674614336045664,128.35394734097503,12127.89054107666
-34.66336909841661,128.35088181123493,12128.228456497192
-34.65212386078755,128.3477814459296,12128.564918518066
-34.64087486472346,128.34468108062427,12128.90210723877
-34.629629627094396,128.34161555088417,12129.237842559814
-34.61838438946534,128.33855002114407,12129.574304580688
-34.60715042714139,128.33548449140397,12129.91294670105
-34.595897672642266,128.3324537972291,12130.248682022095
-34.58465995188328,128.32938826748904,12130.585870742798
-34.57342974799437,128.32632273774894,12130.919425964355
-34.56219202723538,128.32327462579144,12131.259521484375
-34.5509543064764,128.32019167826874,12131.597436904907
-34.53972410258749,128.31714356631124,12131.931718826294
-34.52849389869858,128.31409545435378,12132.273267745972
-34.517267453244706,128.31102992461368,12132.607549667358
-34.506048524660905,128.3079992304388,12132.944738388062
-34.49481832077199,128.3049337006987,12133.283380508423
-34.48359187531812,128.30190300652384,12133.619115829468
-34.472369188299275,128.29883747678375,12133.95775794983
-34.461142742845404,128.29580678260888,12134.293493270874
-34.44992757269664,128.29274125286878,12134.633588790894
-34.43871240254787,128.28974539425914,12134.969324111938
-34.427497232399105,128.28667986451907,12135.30723953247
-34.41628206225034,128.2836665881268,12135.645154953003
-34.40506689210157,128.2806010583867,12135.983070373535
-34.39385548038785,128.27755294642924,12136.321712493896
-34.38264031023908,128.27448741668914,12136.65817451477
-34.37143265696039,128.27147414029687,12136.996816635132
-34.36022876211673,128.26849569946987,12137.335458755493
-34.349028625708115,128.26544758751237,12137.673374176025
-34.33782097242942,128.26238205777227,12138.012016296387
-34.3266208360208,128.2593513635974,12138.349931716919
-34.315413182742105,128.2563729227704,12138.687847137451
-34.3042243216386,128.2533073930303,12139.025762557983
-34.29302042679494,128.25032895220326,12139.365131378174
-34.2818278072564,128.24731567581102,12139.703046798706
